# Data retrieved from https://www-nds.iaea.org/epdl97/za1to100.htm 03/01/2021
# Element, Ag  (Z = 47) 
# Atomic weight, g mol-1 = 107.87 
# Nominal density, g cm-3 =  1.05000E+1 
# Relativistic correction estimate f_rel(5CL)*,  e atom-1 =  0 
# Nuclear Thomson correction f_NT*, e atom-1 =  0 
#    E [keV]      f1 [e atom-1]      f2 [e atom-1]    Wavelength [nm] 
1.000000000E-03 1.885200000E+00 0.000000000E+00 1.239800000E+03
1.125000000E-03 1.880400000E+00 0.000000000E+00 1.102044444E+03
1.265630000E-03 1.875000000E+00 0.000000000E+00 9.795911917E+02
1.423830000E-03 1.869000000E+00 0.000000000E+00 8.707500193E+02
1.601810000E-03 1.862200000E+00 0.000000000E+00 7.739994132E+02
1.802030000E-03 1.854500000E+00 0.000000000E+00 6.880018646E+02
2.005610000E-03 1.846500000E+00 0.000000000E+00 6.181660442E+02
2.183740000E-03 1.832300000E+00 0.000000000E+00 5.677415810E+02
2.339600000E-03 1.819900000E+00 0.000000000E+00 5.299196444E+02
2.475980000E-03 1.809100000E+00 0.000000000E+00 5.007310237E+02
2.595320000E-03 1.799600000E+00 0.000000000E+00 4.777060247E+02
2.699730000E-03 1.791200000E+00 0.000000000E+00 4.592311083E+02
2.791100000E-03 1.784000000E+00 0.000000000E+00 4.441976282E+02
2.871040000E-03 1.777600000E+00 0.000000000E+00 4.318295809E+02
2.940990000E-03 1.772000000E+00 0.000000000E+00 4.215587268E+02
3.002200000E-03 1.767200000E+00 0.000000000E+00 4.129638265E+02
3.055760000E-03 1.762900000E+00 0.000000000E+00 4.057255805E+02
3.102620000E-03 1.759200000E+00 0.000000000E+00 3.995977593E+02
3.143620000E-03 1.755900000E+00 0.000000000E+00 3.943860899E+02
3.179500000E-03 1.753100000E+00 0.000000000E+00 3.899355245E+02
3.242290000E-03 1.748100000E+00 0.000000000E+00 3.823840557E+02
3.289380000E-03 1.744300000E+00 0.000000000E+00 3.769099344E+02
3.324700000E-03 1.741500000E+00 0.000000000E+00 3.729058261E+02
3.351180000E-03 1.739400000E+00 0.000000000E+00 3.699592382E+02
3.371050000E-03 1.737800000E+00 0.000000000E+00 3.677785853E+02
3.385950000E-03 1.736600000E+00 0.000000000E+00 3.661601618E+02
3.408300000E-03 1.734900000E+00 0.000000000E+00 3.637590588E+02
3.419470000E-03 1.734000000E+00 0.000000000E+00 3.625708078E+02
3.425060000E-03 1.733500000E+00 0.000000000E+00 3.619790602E+02
3.430650000E-03 1.733100000E+00 0.000000000E+00 3.613892411E+02
3.439090000E-03 1.732400000E+00 0.000000000E+00 3.605023422E+02
3.447540000E-03 1.731700000E+00 0.000000000E+00 3.596187426E+02
3.455980000E-03 1.731100000E+00 0.000000000E+00 3.587405020E+02
3.464430000E-03 1.730400000E+00 0.000000000E+00 3.578655075E+02
3.472870000E-03 1.729700000E+00 0.000000000E+00 3.569957989E+02
3.481310000E-03 1.729000000E+00 0.000000000E+00 3.561303073E+02
3.489760000E-03 1.728400000E+00 0.000000000E+00 3.552679840E+02
3.498200000E-03 1.727700000E+00 0.000000000E+00 3.544108399E+02
3.506650000E-03 1.727000000E+00 0.000000000E+00 3.535568135E+02
3.515090000E-03 1.726400000E+00 0.000000000E+00 3.527078965E+02
3.519310000E-03 1.726000000E+00 0.000000000E+00 3.522849650E+02
3.523530000E-03 1.725700000E+00 0.000000000E+00 3.518630464E+02
3.525650000E-03 1.725500000E+00 0.000000000E+00 3.516514685E+02
3.528810000E-03 1.725300000E+00 0.000000000E+00 3.513365696E+02
3.531980000E-03 1.725000000E+00 0.000000000E+00 3.510212402E+02
3.536200000E-03 1.724700000E+00 0.000000000E+00 3.506023415E+02
3.540420000E-03 1.724300000E+00 0.000000000E+00 3.501844414E+02
3.542530000E-03 1.724200000E+00 0.000000000E+00 3.499758647E+02
3.545700000E-03 1.723900000E+00 0.000000000E+00 3.496629721E+02
3.547280000E-03 1.723800000E+00 0.000000000E+00 3.495072281E+02
3.548870000E-03 1.723700000E+00 0.000000000E+00 3.493506384E+02
3.555210000E-03 1.723200000E+00 0.000000000E+00 3.487276420E+02
3.557330000E-03 1.723000000E+00 0.000000000E+00 3.485198168E+02
3.566020000E-03 1.722300000E+00 0.000000000E+00 3.476705122E+02
3.568190000E-03 1.722100000E+00 0.000000000E+00 3.474590759E+02
3.574710000E-03 1.721600000E+00 0.000000000E+00 3.468253369E+02
3.579060000E-03 1.721300000E+00 0.000000000E+00 3.464038044E+02
3.583400000E-03 1.720900000E+00 0.000000000E+00 3.459842608E+02
3.587750000E-03 1.720600000E+00 0.000000000E+00 3.455647690E+02
3.592090000E-03 1.720200000E+00 0.000000000E+00 3.451472541E+02
3.596440000E-03 1.719900000E+00 0.000000000E+00 3.447297883E+02
3.598610000E-03 1.719700000E+00 0.000000000E+00 3.445219126E+02
3.600790000E-03 1.719500000E+00 0.000000000E+00 3.443133312E+02
3.605130000E-03 1.719200000E+00 0.000000000E+00 3.438988331E+02
3.607310000E-03 1.719000000E+00 0.000000000E+00 3.436910052E+02
3.608940000E-03 1.718900000E+00 0.000000000E+00 3.435357750E+02
3.610020000E-03 1.718800000E+00 0.000000000E+00 3.434330004E+02
3.611040000E-03 1.718700000E+00 0.000000000E+00 3.433359918E+02
3.614610000E-03 1.718400000E+00 0.000000000E+00 3.429968932E+02
3.616390000E-03 1.718300000E+00 0.000000000E+00 3.428280689E+02
3.617280000E-03 1.718200000E+00 0.000000000E+00 3.427437190E+02
3.618170000E-03 1.718100000E+00 0.000000000E+00 3.426594107E+02
3.626860000E-03 1.717500000E+00 0.000000000E+00 3.418383946E+02
3.629030000E-03 1.717300000E+00 0.000000000E+00 3.416339904E+02
3.635550000E-03 1.716800000E+00 0.000000000E+00 3.410213035E+02
3.639900000E-03 1.716400000E+00 0.000000000E+00 3.406137531E+02
3.644250000E-03 1.716100000E+00 0.000000000E+00 3.402071757E+02
3.648590000E-03 1.715700000E+00 0.000000000E+00 3.398024990E+02
3.652940000E-03 1.715400000E+00 0.000000000E+00 3.393978549E+02
3.661630000E-03 1.714700000E+00 0.000000000E+00 3.385923755E+02
3.670320000E-03 1.714000000E+00 0.000000000E+00 3.377907103E+02
3.679010000E-03 1.713300000E+00 0.000000000E+00 3.369928323E+02
3.687700000E-03 1.712600000E+00 0.000000000E+00 3.361987146E+02
3.696400000E-03 1.711900000E+00 0.000000000E+00 3.354074234E+02
3.705090000E-03 1.711200000E+00 0.000000000E+00 3.346207515E+02
3.711570000E-03 1.710700000E+00 0.000000000E+00 3.340365398E+02
3.724430000E-03 1.709700000E+00 0.000000000E+00 3.328831526E+02
3.737100000E-03 1.708700000E+00 0.000000000E+00 3.317545691E+02
3.749560000E-03 1.707700000E+00 0.000000000E+00 3.306521298E+02
3.774110000E-03 1.705700000E+00 0.000000000E+00 3.285012890E+02
3.797880000E-03 1.703800000E+00 0.000000000E+00 3.264452800E+02
3.820910000E-03 1.702000000E+00 0.000000000E+00 3.244776768E+02
3.865540000E-03 1.698500000E+00 0.000000000E+00 3.207313855E+02
3.907370000E-03 1.695100000E+00 0.000000000E+00 3.172978244E+02
3.946590000E-03 1.692000000E+00 0.000000000E+00 3.141446160E+02
4.020130000E-03 1.684800000E+00 0.000000000E+00 3.083979871E+02
4.084480000E-03 1.675400000E+00 0.000000000E+00 3.035392510E+02
4.197090000E-03 1.658900000E+00 0.000000000E+00 2.953951428E+02
4.281540000E-03 1.646600000E+00 0.000000000E+00 2.895687066E+02
4.408230000E-03 1.628100000E+00 0.000000000E+00 2.812466682E+02
4.534910000E-03 1.609500000E+00 0.000000000E+00 2.733902106E+02
4.546070000E-03 1.607900000E+00 0.000000000E+00 2.727190738E+02
4.557230000E-03 1.606300000E+00 0.000000000E+00 2.720512241E+02
4.568400000E-03 1.604700000E+00 0.000000000E+00 2.713860433E+02
4.579560000E-03 1.603000000E+00 0.000000000E+00 2.707246984E+02
4.590720000E-03 1.601400000E+00 0.000000000E+00 2.700665691E+02
4.601880000E-03 1.599800000E+00 0.000000000E+00 2.694116318E+02
4.613040000E-03 1.598100000E+00 0.000000000E+00 2.687598633E+02
4.624210000E-03 1.596500000E+00 0.000000000E+00 2.681106611E+02
4.635370000E-03 1.594900000E+00 0.000000000E+00 2.674651646E+02
4.646530000E-03 1.593200000E+00 0.000000000E+00 2.668227688E+02
4.657690000E-03 1.591600000E+00 0.000000000E+00 2.661834515E+02
4.668850000E-03 1.590000000E+00 0.000000000E+00 2.655471904E+02
4.680020000E-03 1.588300000E+00 0.000000000E+00 2.649133978E+02
4.702340000E-03 1.585100000E+00 0.000000000E+00 2.636559670E+02
4.713500000E-03 1.583400000E+00 0.000000000E+00 2.630317174E+02
4.724660000E-03 1.581800000E+00 0.000000000E+00 2.624104168E+02
4.735830000E-03 1.580200000E+00 0.000000000E+00 2.617914917E+02
4.746990000E-03 1.578500000E+00 0.000000000E+00 2.611760294E+02
4.758150000E-03 1.576900000E+00 0.000000000E+00 2.605634543E+02
4.822460000E-03 1.567500000E+00 0.000000000E+00 2.570887058E+02
4.834330000E-03 1.565800000E+00 0.000000000E+00 2.564574615E+02
4.846200000E-03 1.564000000E+00 0.000000000E+00 2.558293096E+02
4.858070000E-03 1.562300000E+00 0.000000000E+00 2.552042272E+02
4.869940000E-03 1.560600000E+00 0.000000000E+00 2.545821920E+02
4.881810000E-03 1.558800000E+00 0.000000000E+00 2.539631817E+02
4.893680000E-03 1.557100000E+00 0.000000000E+00 2.533471743E+02
4.905550000E-03 1.555400000E+00 0.000000000E+00 2.527341481E+02
4.917420000E-03 1.553600000E+00 0.000000000E+00 2.521240813E+02
4.929290000E-03 1.551900000E+00 0.000000000E+00 2.515169527E+02
4.941160000E-03 1.550200000E+00 0.000000000E+00 2.509127411E+02
4.953030000E-03 1.548400000E+00 0.000000000E+00 2.503114255E+02
4.964900000E-03 1.546700000E+00 0.000000000E+00 2.497129852E+02
4.976770000E-03 1.544900000E+00 0.000000000E+00 2.491173994E+02
5.000510000E-03 1.541500000E+00 0.000000000E+00 2.479347107E+02
5.012380000E-03 1.539700000E+00 0.000000000E+00 2.473475674E+02
5.024250000E-03 1.538000000E+00 0.000000000E+00 2.467631985E+02
5.036120000E-03 1.536300000E+00 0.000000000E+00 2.461815842E+02
5.047990000E-03 1.534500000E+00 0.000000000E+00 2.456027052E+02
5.059860000E-03 1.532800000E+00 0.000000000E+00 2.450265422E+02
5.114090000E-03 1.524900000E+00 0.000000000E+00 2.424282717E+02
5.154760000E-03 1.518900000E+00 0.000000000E+00 2.405155623E+02
5.185270000E-03 1.514500000E+00 0.000000000E+00 2.391003747E+02
5.231020000E-03 1.507800000E+00 0.000000000E+00 2.370092257E+02
5.253900000E-03 1.504400000E+00 0.000000000E+00 2.359770837E+02
5.265340000E-03 1.502800000E+00 0.000000000E+00 2.354643765E+02
5.276780000E-03 1.501100000E+00 0.000000000E+00 2.349538923E+02
5.287120000E-03 1.499600000E+00 0.000000000E+00 2.344943939E+02
5.292290000E-03 1.498800000E+00 0.000000000E+00 2.342653180E+02
5.297470000E-03 1.498100000E+00 0.000000000E+00 2.340362475E+02
5.300110000E-03 1.497700000E+00 0.000000000E+00 2.339196734E+02
5.302760000E-03 1.497300000E+00 0.000000000E+00 2.338027744E+02
5.306410000E-03 1.496700000E+00 0.000000000E+00 2.336419538E+02
5.309040000E-03 1.496300000E+00 0.000000000E+00 2.335262119E+02
5.315740000E-03 1.495300000E+00 0.000000000E+00 2.332318736E+02
5.328730000E-03 1.493200000E+00 0.000000000E+00 2.326633175E+02
5.332530000E-03 1.492600000E+00 0.000000000E+00 2.324975199E+02
5.345590000E-03 1.490500000E+00 0.000000000E+00 2.319294970E+02
5.348860000E-03 1.490000000E+00 0.000000000E+00 2.317877080E+02
5.358650000E-03 1.488500000E+00 0.000000000E+00 2.313642429E+02
5.362870000E-03 1.487800000E+00 0.000000000E+00 2.311821842E+02
5.369190000E-03 1.486800000E+00 0.000000000E+00 2.309100628E+02
5.375510000E-03 1.485800000E+00 0.000000000E+00 2.306385813E+02
5.381090000E-03 1.484900000E+00 0.000000000E+00 2.303994172E+02
5.385280000E-03 1.484200000E+00 0.000000000E+00 2.302201557E+02
5.388420000E-03 1.483700000E+00 0.000000000E+00 2.300859992E+02
5.393130000E-03 1.483000000E+00 0.000000000E+00 2.298850575E+02
5.396660000E-03 1.482400000E+00 0.000000000E+00 2.297346878E+02
5.398650000E-03 1.482100000E+00 0.000000000E+00 2.296500051E+02
5.401710000E-03 1.481600000E+00 0.000000000E+00 2.295199113E+02
5.405250000E-03 1.481100000E+00 0.000000000E+00 2.293695944E+02
5.408070000E-03 1.480600000E+00 0.000000000E+00 2.292499912E+02
5.409490000E-03 1.480400000E+00 0.000000000E+00 2.291898127E+02
5.410900000E-03 1.480200000E+00 0.000000000E+00 2.291300893E+02
5.414160000E-03 1.479700000E+00 0.000000000E+00 2.289921244E+02
5.419060000E-03 1.478900000E+00 0.000000000E+00 2.287850660E+02
5.421510000E-03 1.478500000E+00 0.000000000E+00 2.286816772E+02
5.423960000E-03 1.478100000E+00 0.000000000E+00 2.285783818E+02
5.437360000E-03 1.476000000E+00 0.000000000E+00 2.280150661E+02
5.450740000E-03 1.473900000E+00 0.000000000E+00 2.274553547E+02
5.458650000E-03 1.472600000E+00 0.000000000E+00 2.271257545E+02
5.466560000E-03 1.471400000E+00 0.000000000E+00 2.267971082E+02
5.479570000E-03 1.469300000E+00 0.000000000E+00 2.262586298E+02
5.492570000E-03 1.467200000E+00 0.000000000E+00 2.257231132E+02
5.502330000E-03 1.465700000E+00 0.000000000E+00 2.253227269E+02
5.515390000E-03 1.463600000E+00 0.000000000E+00 2.247891808E+02
5.528450000E-03 1.461500000E+00 0.000000000E+00 2.242581555E+02
5.536540000E-03 1.460200000E+00 0.000000000E+00 2.239304692E+02
5.541510000E-03 1.459500000E+00 0.000000000E+00 2.237296333E+02
5.557810000E-03 1.456900000E+00 0.000000000E+00 2.230734768E+02
5.567630000E-03 1.455300000E+00 0.000000000E+00 2.226800272E+02
5.571190000E-03 1.454800000E+00 0.000000000E+00 2.225377343E+02
5.584570000E-03 1.452600000E+00 0.000000000E+00 2.220045590E+02
5.597960000E-03 1.450500000E+00 0.000000000E+00 2.214735368E+02
5.611340000E-03 1.448400000E+00 0.000000000E+00 2.209454426E+02
5.638110000E-03 1.444100000E+00 0.000000000E+00 2.198963837E+02
5.651490000E-03 1.442000000E+00 0.000000000E+00 2.193757752E+02
5.664870000E-03 1.439900000E+00 0.000000000E+00 2.188576260E+02
5.678260000E-03 1.437800000E+00 0.000000000E+00 2.183415342E+02
5.691640000E-03 1.435600000E+00 0.000000000E+00 2.178282534E+02
5.705020000E-03 1.433500000E+00 0.000000000E+00 2.173173801E+02
5.914580000E-03 1.400300000E+00 0.000000000E+00 2.096175891E+02
5.927110000E-03 1.398300000E+00 0.000000000E+00 2.091744543E+02
5.943700000E-03 1.395600000E+00 0.000000000E+00 2.085906085E+02
5.956290000E-03 1.393700000E+00 0.000000000E+00 2.081497039E+02
5.970880000E-03 1.390900000E+00 0.000000000E+00 2.076410847E+02
5.985470000E-03 1.387900000E+00 0.000000000E+00 2.071349451E+02
6.001930000E-03 1.384300000E+00 0.000000000E+00 2.065668877E+02
6.010300000E-03 1.381700000E+00 0.000000000E+00 2.062792207E+02
6.022850000E-03 1.377800000E+00 0.000000000E+00 2.058493902E+02
6.035400000E-03 1.374000000E+00 0.000000000E+00 2.054213474E+02
6.045600000E-03 1.370800000E+00 0.000000000E+00 2.050747651E+02
6.060160000E-03 1.366300000E+00 0.000000000E+00 2.045820572E+02
6.074720000E-03 1.361800000E+00 0.000000000E+00 2.040917112E+02
6.089280000E-03 1.357300000E+00 0.000000000E+00 2.036037101E+02
6.103830000E-03 1.352800000E+00 0.000000000E+00 2.031183699E+02
6.121130000E-03 1.347500000E+00 0.000000000E+00 2.025443015E+02
6.138420000E-03 1.342100000E+00 0.000000000E+00 2.019737978E+02
6.147510000E-03 1.339300000E+00 0.000000000E+00 2.016751498E+02
6.160530000E-03 1.335300000E+00 0.000000000E+00 2.012489185E+02
6.175120000E-03 1.330800000E+00 0.000000000E+00 2.007734263E+02
6.189710000E-03 1.326300000E+00 0.000000000E+00 2.003001756E+02
6.205740000E-03 1.321300000E+00 0.000000000E+00 1.997827817E+02
6.210230000E-03 1.319900000E+00 0.000000000E+00 1.996383387E+02
6.215930000E-03 1.318100000E+00 0.000000000E+00 1.994552706E+02
6.218890000E-03 1.317200000E+00 0.000000000E+00 1.993603360E+02
6.240050000E-03 1.310700000E+00 0.000000000E+00 1.986843054E+02
6.246530000E-03 1.308700000E+00 0.000000000E+00 1.984781951E+02
6.255330000E-03 1.306000000E+00 0.000000000E+00 1.981989759E+02
6.261830000E-03 1.304000000E+00 0.000000000E+00 1.979932384E+02
6.270620000E-03 1.301200000E+00 0.000000000E+00 1.977156964E+02
6.277130000E-03 1.299200000E+00 0.000000000E+00 1.975106458E+02
6.292430000E-03 1.294500000E+00 0.000000000E+00 1.970304000E+02
6.312090000E-03 1.288400000E+00 0.000000000E+00 1.964167178E+02
6.331750000E-03 1.282300000E+00 0.000000000E+00 1.958068464E+02
6.347040000E-03 1.277600000E+00 0.000000000E+00 1.953351484E+02
6.353630000E-03 1.275600000E+00 0.000000000E+00 1.951325463E+02
6.369820000E-03 1.270600000E+00 0.000000000E+00 1.946365831E+02
6.385500000E-03 1.265700000E+00 0.000000000E+00 1.941586407E+02
6.401180000E-03 1.260900000E+00 0.000000000E+00 1.936830397E+02
6.416860000E-03 1.256000000E+00 0.000000000E+00 1.932097630E+02
6.432540000E-03 1.251200000E+00 0.000000000E+00 1.927387937E+02
6.448220000E-03 1.246300000E+00 0.000000000E+00 1.922701149E+02
6.460730000E-03 1.242500000E+00 0.000000000E+00 1.918978196E+02
6.469310000E-03 1.239800000E+00 0.000000000E+00 1.916433128E+02
6.479570000E-03 1.236600000E+00 0.000000000E+00 1.913398574E+02
6.495250000E-03 1.231800000E+00 0.000000000E+00 1.908779493E+02
6.516750000E-03 1.225100000E+00 0.000000000E+00 1.902482065E+02
6.546210000E-03 1.216000000E+00 0.000000000E+00 1.893920299E+02
6.572670000E-03 1.207900000E+00 0.000000000E+00 1.886295828E+02
6.630850000E-03 1.188300000E+00 3.498320000E-07 1.869745206E+02
6.769890000E-03 1.113400000E+00 3.113180000E-03 1.831344379E+02
6.818490000E-03 1.072300000E+00 1.844170000E-02 1.818291147E+02
6.851540000E-03 1.045600000E+00 4.325350000E-02 1.809520195E+02
6.867260000E-03 1.036300000E+00 5.919030000E-02 1.805377982E+02
6.875070000E-03 1.033000000E+00 6.779640000E-02 1.803327093E+02
6.882790000E-03 1.031600000E+00 7.658910000E-02 1.801304413E+02
6.899390000E-03 1.028700000E+00 9.551120000E-02 1.796970457E+02
6.908210000E-03 1.029400000E+00 1.052320000E-01 1.794676190E+02
6.913350000E-03 1.030500000E+00 1.106040000E-01 1.793341868E+02
6.924250000E-03 1.033500000E+00 1.214500000E-01 1.790518829E+02
6.932390000E-03 1.036800000E+00 1.286740000E-01 1.788416405E+02
6.938370000E-03 1.039500000E+00 1.335410000E-01 1.786875015E+02
6.947850000E-03 1.044300000E+00 1.403020000E-01 1.784436912E+02
6.951430000E-03 1.046200000E+00 1.424510000E-01 1.783517924E+02
6.956470000E-03 1.049000000E+00 1.454740000E-01 1.782225755E+02
6.964070000E-03 1.053300000E+00 1.491840000E-01 1.780280784E+02
6.996190000E-03 1.070400000E+00 1.584700000E-01 1.772107390E+02
7.063370000E-03 1.092200000E+00 1.587040000E-01 1.755252804E+02
7.219830000E-03 1.099700000E+00 1.456280000E-01 1.717214948E+02
7.360900000E-03 1.088100000E+00 1.346040000E-01 1.684304908E+02
7.517950000E-03 1.067700000E+00 1.231820000E-01 1.649119773E+02
7.595180000E-03 1.055400000E+00 1.180430000E-01 1.632351044E+02
7.636300000E-03 1.048600000E+00 1.153750000E-01 1.623561149E+02
7.753940000E-03 1.027900000E+00 1.080720000E-01 1.598929061E+02
7.810380000E-03 1.017200000E+00 1.047950000E-01 1.587374750E+02
7.865720000E-03 1.006600000E+00 1.015990000E-01 1.576206628E+02
7.914150000E-03 9.970000000E-01 9.896290000E-02 1.566561159E+02
7.956520000E-03 9.886000000E-01 9.666640000E-02 1.558218920E+02
8.030670000E-03 9.732000000E-01 9.286900000E-02 1.543831337E+02
8.086280000E-03 9.617000000E-01 9.002150000E-02 1.533214284E+02
8.127980000E-03 9.527000000E-01 8.802630000E-02 1.525348242E+02
8.190550000E-03 9.392000000E-01 8.503340000E-02 1.513695661E+02
8.221830000E-03 9.324000000E-01 8.360340000E-02 1.507936798E+02
8.253110000E-03 9.255000000E-01 8.220440000E-02 1.502221587E+02
8.273420000E-03 9.210000000E-01 8.129600000E-02 1.498533859E+02
8.299870000E-03 9.152000000E-01 8.011320000E-02 1.493758336E+02
8.314050000E-03 9.120000000E-01 7.951780000E-02 1.491210661E+02
8.334370000E-03 9.075000000E-01 7.866490000E-02 1.487574946E+02
8.344040000E-03 9.053000000E-01 7.825890000E-02 1.485850979E+02
8.353700000E-03 9.031000000E-01 7.785290000E-02 1.484132779E+02
8.395310000E-03 8.938000000E-01 7.610610000E-02 1.476776915E+02
8.415620000E-03 8.892000000E-01 7.525320000E-02 1.473212906E+02
8.435950000E-03 8.847000000E-01 7.439970000E-02 1.469662575E+02
8.456510000E-03 8.800000000E-01 7.358680000E-02 1.466089439E+02
8.466790000E-03 8.776000000E-01 7.318390000E-02 1.464309378E+02
8.477070000E-03 8.753000000E-01 7.278100000E-02 1.462533635E+02
8.487350000E-03 8.729000000E-01 7.237810000E-02 1.460762193E+02
8.497640000E-03 8.706000000E-01 7.197510000E-02 1.458993320E+02
8.507920000E-03 8.682000000E-01 7.157220000E-02 1.457230439E+02
8.518200000E-03 8.659000000E-01 7.116930000E-02 1.455471813E+02
