# Data retrieved from https://www-nds.iaea.org/epdl97/za1to100.htm 03/01/2021
# Element, Al  (Z = 13) 
# Atomic weight, g mol-1 = 26.982 
# Nominal density, g cm-3 =  2.69890E+0 
# Relativistic correction estimate f_rel(5CL)*,  e atom-1 =  0 
# Nuclear Thomson correction f_NT*, e atom-1 =  0 
#    E [keV]      f1 [e atom-1]      f2 [e atom-1]    Wavelength [nm] 
1.000000000E-03 2.383500000E+00 0.000000000E+00 1.239800000E+03
1.125000000E-03 2.378900000E+00 0.000000000E+00 1.102044444E+03
1.256680000E-03 2.374100000E+00 0.000000000E+00 9.865677818E+02
1.371900000E-03 2.369900000E+00 0.000000000E+00 9.037101830E+02
1.472720000E-03 2.366200000E+00 0.000000000E+00 8.418436634E+02
1.560940000E-03 2.363000000E+00 0.000000000E+00 7.942649942E+02
1.638130000E-03 2.360200000E+00 0.000000000E+00 7.568385903E+02
1.773210000E-03 2.355200000E+00 0.000000000E+00 6.991839658E+02
1.874520000E-03 2.351500000E+00 0.000000000E+00 6.613959840E+02
1.950500000E-03 2.348800000E+00 0.000000000E+00 6.356318893E+02
2.007490000E-03 2.346500000E+00 0.000000000E+00 6.175871362E+02
2.050230000E-03 2.343700000E+00 0.000000000E+00 6.047126420E+02
2.082280000E-03 2.341600000E+00 0.000000000E+00 5.954050368E+02
2.106330000E-03 2.340000000E+00 0.000000000E+00 5.886067235E+02
2.124360000E-03 2.338800000E+00 0.000000000E+00 5.836110640E+02
2.137880000E-03 2.337900000E+00 0.000000000E+00 5.799202949E+02
2.158170000E-03 2.336600000E+00 0.000000000E+00 5.744681837E+02
2.168310000E-03 2.335900000E+00 0.000000000E+00 5.717817102E+02
2.178450000E-03 2.335300000E+00 0.000000000E+00 5.691202460E+02
2.183810000E-03 2.334900000E+00 0.000000000E+00 5.677233825E+02
2.189170000E-03 2.334600000E+00 0.000000000E+00 5.663333592E+02
2.194540000E-03 2.334200000E+00 0.000000000E+00 5.649475517E+02
2.195970000E-03 2.334100000E+00 0.000000000E+00 5.645796618E+02
2.201370000E-03 2.333800000E+00 0.000000000E+00 5.631947378E+02
2.206780000E-03 2.333400000E+00 0.000000000E+00 5.618140458E+02
2.212180000E-03 2.333000000E+00 0.000000000E+00 5.604426403E+02
2.217590000E-03 2.332700000E+00 0.000000000E+00 5.590753927E+02
2.222990000E-03 2.332300000E+00 0.000000000E+00 5.577173087E+02
2.227530000E-03 2.332000000E+00 0.000000000E+00 5.565806072E+02
2.232070000E-03 2.331700000E+00 0.000000000E+00 5.554485298E+02
2.235640000E-03 2.331500000E+00 0.000000000E+00 5.545615573E+02
2.237420000E-03 2.331400000E+00 0.000000000E+00 5.541203708E+02
2.239210000E-03 2.331300000E+00 0.000000000E+00 5.536774130E+02
2.243260000E-03 2.331000000E+00 0.000000000E+00 5.526777993E+02
2.244610000E-03 2.330900000E+00 0.000000000E+00 5.523453963E+02
2.249340000E-03 2.330600000E+00 0.000000000E+00 5.511839028E+02
2.250020000E-03 2.330600000E+00 0.000000000E+00 5.510173243E+02
2.250360000E-03 2.330500000E+00 0.000000000E+00 5.509340728E+02
2.250990000E-03 2.330500000E+00 0.000000000E+00 5.507798791E+02
2.252100000E-03 2.330400000E+00 0.000000000E+00 5.505084144E+02
2.252930000E-03 2.330400000E+00 0.000000000E+00 5.503056020E+02
2.254180000E-03 2.330300000E+00 0.000000000E+00 5.500004436E+02
2.254800000E-03 2.330300000E+00 0.000000000E+00 5.498492106E+02
2.256100000E-03 2.330200000E+00 0.000000000E+00 5.495323789E+02
2.257280000E-03 2.330100000E+00 0.000000000E+00 5.492451092E+02
2.261930000E-03 2.329800000E+00 0.000000000E+00 5.481159894E+02
2.263850000E-03 2.329700000E+00 0.000000000E+00 5.476511253E+02
2.266720000E-03 2.329500000E+00 0.000000000E+00 5.469577186E+02
2.269600000E-03 2.329300000E+00 0.000000000E+00 5.462636588E+02
2.273320000E-03 2.329000000E+00 0.000000000E+00 5.453697676E+02
2.277050000E-03 2.328800000E+00 0.000000000E+00 5.444764059E+02
2.282450000E-03 2.328400000E+00 0.000000000E+00 5.431882407E+02
2.287860000E-03 2.328100000E+00 0.000000000E+00 5.419037878E+02
2.293260000E-03 2.327700000E+00 0.000000000E+00 5.406277526E+02
2.301370000E-03 2.327200000E+00 0.000000000E+00 5.387225870E+02
2.304070000E-03 2.327000000E+00 0.000000000E+00 5.380912906E+02
2.305390000E-03 2.326900000E+00 0.000000000E+00 5.377831950E+02
2.308010000E-03 2.326800000E+00 0.000000000E+00 5.371727159E+02
2.977960000E-03 2.267800000E+00 0.000000000E+00 4.163252696E+02
2.992620000E-03 2.266300000E+00 0.000000000E+00 4.142858098E+02
2.999950000E-03 2.265600000E+00 0.000000000E+00 4.132735546E+02
3.007280000E-03 2.264900000E+00 0.000000000E+00 4.122662339E+02
3.014610000E-03 2.264200000E+00 0.000000000E+00 4.112638119E+02
3.021220000E-03 2.263500000E+00 0.000000000E+00 4.103640251E+02
3.027830000E-03 2.262900000E+00 0.000000000E+00 4.094681670E+02
3.036600000E-03 2.262100000E+00 0.000000000E+00 4.082855826E+02
3.043930000E-03 2.261300000E+00 0.000000000E+00 4.073024018E+02
3.051260000E-03 2.260300000E+00 0.000000000E+00 4.063239449E+02
3.058590000E-03 2.259300000E+00 0.000000000E+00 4.053501777E+02
3.065920000E-03 2.258200000E+00 0.000000000E+00 4.043810667E+02
3.068590000E-03 2.257800000E+00 0.000000000E+00 4.040292121E+02
3.072580000E-03 2.257200000E+00 0.000000000E+00 4.035045467E+02
3.076580000E-03 2.256600000E+00 0.000000000E+00 4.029799323E+02
3.082250000E-03 2.255800000E+00 0.000000000E+00 4.022386244E+02
3.085080000E-03 2.255400000E+00 0.000000000E+00 4.018696436E+02
3.087910000E-03 2.255000000E+00 0.000000000E+00 4.015013391E+02
3.095240000E-03 2.253900000E+00 0.000000000E+00 4.005505227E+02
3.102570000E-03 2.252900000E+00 0.000000000E+00 3.996041991E+02
3.109900000E-03 2.251800000E+00 0.000000000E+00 3.986623364E+02
3.120820000E-03 2.250200000E+00 0.000000000E+00 3.972673849E+02
3.124560000E-03 2.249700000E+00 0.000000000E+00 3.967918683E+02
3.127530000E-03 2.249300000E+00 0.000000000E+00 3.964150624E+02
3.128190000E-03 2.249200000E+00 0.000000000E+00 3.963314249E+02
3.138530000E-03 2.247700000E+00 0.000000000E+00 3.950256967E+02
3.142940000E-03 2.247000000E+00 0.000000000E+00 3.944714185E+02
3.145910000E-03 2.246600000E+00 0.000000000E+00 3.940990047E+02
3.168250000E-03 2.243400000E+00 0.000000000E+00 3.913201294E+02
3.185010000E-03 2.241000000E+00 0.000000000E+00 3.892609442E+02
3.197580000E-03 2.239100000E+00 0.000000000E+00 3.877307214E+02
3.216430000E-03 2.236400000E+00 0.000000000E+00 3.854584120E+02
3.225850000E-03 2.235000000E+00 0.000000000E+00 3.843328115E+02
3.235280000E-03 2.233700000E+00 0.000000000E+00 3.832125813E+02
3.235310000E-03 2.233700000E+00 0.000000000E+00 3.832090279E+02
3.243270000E-03 2.232500000E+00 0.000000000E+00 3.822685130E+02
3.251230000E-03 2.231400000E+00 0.000000000E+00 3.813326034E+02
3.252800000E-03 2.231100000E+00 0.000000000E+00 3.811485489E+02
3.260830000E-03 2.230000000E+00 0.000000000E+00 3.802099465E+02
3.268840000E-03 2.228800000E+00 0.000000000E+00 3.792782761E+02
3.276850000E-03 2.227700000E+00 0.000000000E+00 3.783511604E+02
3.284850000E-03 2.226500000E+00 0.000000000E+00 3.774297152E+02
3.292860000E-03 2.225300000E+00 0.000000000E+00 3.765116039E+02
3.296860000E-03 2.224800000E+00 0.000000000E+00 3.760547915E+02
3.302870000E-03 2.223900000E+00 0.000000000E+00 3.753705111E+02
3.308870000E-03 2.223000000E+00 0.000000000E+00 3.746898488E+02
3.312870000E-03 2.222400000E+00 0.000000000E+00 3.742374437E+02
3.316880000E-03 2.221900000E+00 0.000000000E+00 3.737850028E+02
3.322880000E-03 2.221000000E+00 0.000000000E+00 3.731100732E+02
3.326890000E-03 2.220400000E+00 0.000000000E+00 3.726603525E+02
3.329890000E-03 2.220000000E+00 0.000000000E+00 3.723246113E+02
3.331390000E-03 2.219800000E+00 0.000000000E+00 3.721569675E+02
3.332140000E-03 2.219700000E+00 0.000000000E+00 3.720732022E+02
3.332330000E-03 2.219600000E+00 0.000000000E+00 3.720519876E+02
3.332470000E-03 2.219600000E+00 0.000000000E+00 3.720363574E+02
3.332570000E-03 2.219600000E+00 0.000000000E+00 3.720251938E+02
3.332710000E-03 2.219600000E+00 0.000000000E+00 3.720095658E+02
3.332800000E-03 2.219600000E+00 0.000000000E+00 3.719995199E+02
3.332840000E-03 2.219600000E+00 0.000000000E+00 3.719950553E+02
3.332950000E-03 2.219500000E+00 0.000000000E+00 3.719827780E+02
3.333200000E-03 2.219500000E+00 0.000000000E+00 3.719548782E+02
3.340900000E-03 2.218400000E+00 0.000000000E+00 3.710976084E+02
3.342900000E-03 2.218100000E+00 0.000000000E+00 3.708755871E+02
3.348900000E-03 2.217200000E+00 0.000000000E+00 3.702111141E+02
3.351910000E-03 2.216800000E+00 0.000000000E+00 3.698786662E+02
3.357160000E-03 2.216000000E+00 0.000000000E+00 3.693002419E+02
3.361100000E-03 2.215500000E+00 0.000000000E+00 3.688673351E+02
3.367010000E-03 2.214600000E+00 0.000000000E+00 3.682198746E+02
3.372920000E-03 2.213800000E+00 0.000000000E+00 3.675746831E+02
3.380930000E-03 2.212600000E+00 0.000000000E+00 3.667038359E+02
3.388930000E-03 2.211400000E+00 0.000000000E+00 3.658381849E+02
3.396940000E-03 2.210300000E+00 0.000000000E+00 3.649755368E+02
3.404950000E-03 2.209100000E+00 0.000000000E+00 3.641169474E+02
3.412920000E-03 2.208000000E+00 0.000000000E+00 3.632666456E+02
3.412950000E-03 2.208000000E+00 0.000000000E+00 3.632634524E+02
3.416300000E-03 2.207500000E+00 0.000000000E+00 3.629072388E+02
3.422780000E-03 2.206500000E+00 0.000000000E+00 3.622201836E+02
3.434930000E-03 2.204800000E+00 0.000000000E+00 3.609389420E+02
3.445560000E-03 2.203200000E+00 0.000000000E+00 3.598253985E+02
3.464170000E-03 2.199900000E+00 0.000000000E+00 3.578923667E+02
3.478120000E-03 2.197100000E+00 0.000000000E+00 3.564569365E+02
3.499060000E-03 2.192900000E+00 0.000000000E+00 3.543237327E+02
3.519990000E-03 2.188700000E+00 0.000000000E+00 3.522169097E+02
3.537510000E-03 2.185200000E+00 0.000000000E+00 3.504725075E+02
3.546220000E-03 2.183500000E+00 0.000000000E+00 3.496116992E+02
3.554920000E-03 2.181700000E+00 0.000000000E+00 3.487560902E+02
3.563630000E-03 2.180000000E+00 0.000000000E+00 3.479036825E+02
3.572340000E-03 2.178200000E+00 0.000000000E+00 3.470554315E+02
3.581040000E-03 2.176500000E+00 0.000000000E+00 3.462122735E+02
3.589750000E-03 2.174700000E+00 0.000000000E+00 3.453722404E+02
3.598460000E-03 2.173000000E+00 0.000000000E+00 3.445362739E+02
3.607170000E-03 2.171200000E+00 0.000000000E+00 3.437043444E+02
3.615870000E-03 2.169400000E+00 0.000000000E+00 3.428773711E+02
3.624580000E-03 2.167600000E+00 0.000000000E+00 3.420534241E+02
3.633290000E-03 2.165700000E+00 0.000000000E+00 3.412334276E+02
3.641990000E-03 2.163900000E+00 0.000000000E+00 3.404182878E+02
3.650700000E-03 2.162100000E+00 0.000000000E+00 3.396061029E+02
3.658990000E-03 2.160300000E+00 0.000000000E+00 3.388366735E+02
3.667280000E-03 2.158500000E+00 0.000000000E+00 3.380707227E+02
3.676820000E-03 2.156500000E+00 0.000000000E+00 3.371935531E+02
3.685530000E-03 2.154700000E+00 0.000000000E+00 3.363966648E+02
3.694240000E-03 2.152800000E+00 0.000000000E+00 3.356035342E+02
3.702940000E-03 2.151000000E+00 0.000000000E+00 3.348150389E+02
3.711650000E-03 2.149200000E+00 0.000000000E+00 3.340293401E+02
3.723140000E-03 2.146700000E+00 0.000000000E+00 3.329984905E+02
3.744690000E-03 2.142200000E+00 0.000000000E+00 3.310821457E+02
3.763550000E-03 2.137700000E+00 0.000000000E+00 3.294230182E+02
3.780040000E-03 2.133400000E+00 0.000000000E+00 3.279859472E+02
3.794480000E-03 2.129700000E+00 0.000000000E+00 3.267377875E+02
3.807110000E-03 2.126400000E+00 0.000000000E+00 3.256538424E+02
3.829210000E-03 2.120600000E+00 0.000000000E+00 3.237743555E+02
3.845790000E-03 2.116300000E+00 0.000000000E+00 3.223784970E+02
3.858230000E-03 2.113000000E+00 0.000000000E+00 3.213390596E+02
3.876880000E-03 2.107800000E+00 0.000000000E+00 3.197932358E+02
3.886200000E-03 2.105000000E+00 0.000000000E+00 3.190262982E+02
3.895530000E-03 2.102200000E+00 0.000000000E+00 3.182622134E+02
3.895540000E-03 2.102200000E+00 0.000000000E+00 3.182613964E+02
3.905120000E-03 2.099300000E+00 0.000000000E+00 3.174806408E+02
3.909090000E-03 2.098100000E+00 0.000000000E+00 3.171582133E+02
3.913060000E-03 2.096900000E+00 0.000000000E+00 3.168364400E+02
3.914710000E-03 2.096400000E+00 0.000000000E+00 3.167028975E+02
3.924300000E-03 2.093600000E+00 0.000000000E+00 3.159289555E+02
3.932320000E-03 2.091100000E+00 0.000000000E+00 3.152846157E+02
3.941950000E-03 2.088200000E+00 0.000000000E+00 3.145143901E+02
3.951580000E-03 2.085300000E+00 0.000000000E+00 3.137479186E+02
3.957120000E-03 2.083700000E+00 0.000000000E+00 3.133086689E+02
3.964410000E-03 2.081500000E+00 0.000000000E+00 3.127325378E+02
3.968240000E-03 2.080300000E+00 0.000000000E+00 3.124306998E+02
3.976630000E-03 2.077500000E+00 0.000000000E+00 3.117715251E+02
3.980820000E-03 2.076100000E+00 0.000000000E+00 3.114433710E+02
3.985010000E-03 2.074600000E+00 0.000000000E+00 3.111159069E+02
3.988220000E-03 2.073500000E+00 0.000000000E+00 3.108654989E+02
3.991420000E-03 2.072400000E+00 0.000000000E+00 3.106162719E+02
3.998610000E-03 2.069900000E+00 0.000000000E+00 3.100577451E+02
4.000000000E-03 2.069400000E+00 0.000000000E+00 3.099500000E+02
4.002210000E-03 2.068700000E+00 0.000000000E+00 3.097788472E+02
4.007450000E-03 2.066800000E+00 0.000000000E+00 3.093737913E+02
4.008240000E-03 2.066600000E+00 0.000000000E+00 3.093128156E+02
4.009150000E-03 2.066200000E+00 0.000000000E+00 3.092426075E+02
4.009870000E-03 2.066000000E+00 0.000000000E+00 3.091870809E+02
4.010230000E-03 2.065900000E+00 0.000000000E+00 3.091593250E+02
4.010600000E-03 2.065700000E+00 0.000000000E+00 3.091308034E+02
4.011200000E-03 2.065500000E+00 0.000000000E+00 3.090845632E+02
4.020190000E-03 2.062400000E+00 0.000000000E+00 3.083933844E+02
4.022580000E-03 2.061600000E+00 0.000000000E+00 3.082101537E+02
4.029770000E-03 2.059000000E+00 0.000000000E+00 3.076602387E+02
4.032930000E-03 2.057900000E+00 0.000000000E+00 3.074191717E+02
4.038450000E-03 2.056000000E+00 0.000000000E+00 3.069989724E+02
4.046720000E-03 2.053100000E+00 0.000000000E+00 3.063715799E+02
4.055000000E-03 2.050200000E+00 0.000000000E+00 3.057459926E+02
4.060440000E-03 2.048300000E+00 0.000000000E+00 3.053363675E+02
4.067180000E-03 2.045600000E+00 0.000000000E+00 3.048303739E+02
4.077090000E-03 2.041600000E+00 0.000000000E+00 3.040894363E+02
4.086420000E-03 2.037900000E+00 0.000000000E+00 3.033951478E+02
4.105680000E-03 2.030300000E+00 0.000000000E+00 3.019719023E+02
4.109030000E-03 2.029000000E+00 0.000000000E+00 3.017257114E+02
4.114040000E-03 2.027000000E+00 0.000000000E+00 3.013582756E+02
4.119060000E-03 2.025000000E+00 0.000000000E+00 3.009910028E+02
4.126660000E-03 2.022000000E+00 0.000000000E+00 3.004366728E+02
4.134650000E-03 2.018800000E+00 0.000000000E+00 2.998560942E+02
4.144610000E-03 2.014400000E+00 0.000000000E+00 2.991355037E+02
4.154570000E-03 2.009900000E+00 0.000000000E+00 2.984183682E+02
4.166310000E-03 2.004600000E+00 0.000000000E+00 2.975774726E+02
4.176230000E-03 2.000200000E+00 0.000000000E+00 2.968706225E+02
4.185310000E-03 1.996100000E+00 0.000000000E+00 2.962265639E+02
4.194390000E-03 1.992000000E+00 0.000000000E+00 2.955852937E+02
4.202200000E-03 1.988500000E+00 0.000000000E+00 2.950359336E+02
4.204520000E-03 1.987400000E+00 0.000000000E+00 2.948731365E+02
4.211820000E-03 1.983700000E+00 0.000000000E+00 2.943620573E+02
4.214300000E-03 1.982500000E+00 0.000000000E+00 2.941888333E+02
4.219330000E-03 1.979900000E+00 0.000000000E+00 2.938381212E+02
4.221010000E-03 1.979100000E+00 0.000000000E+00 2.937211710E+02
4.224260000E-03 1.977500000E+00 0.000000000E+00 2.934951921E+02
4.241780000E-03 1.968600000E+00 0.000000000E+00 2.922829567E+02
4.252170000E-03 1.963300000E+00 0.000000000E+00 2.915687755E+02
4.262560000E-03 1.958100000E+00 0.000000000E+00 2.908580759E+02
4.274290000E-03 1.951400000E+00 0.000000000E+00 2.900598696E+02
4.282180000E-03 1.946800000E+00 0.000000000E+00 2.895254286E+02
4.288100000E-03 1.943400000E+00 0.000000000E+00 2.891257200E+02
4.296980000E-03 1.938300000E+00 0.000000000E+00 2.885282221E+02
4.301420000E-03 1.935700000E+00 0.000000000E+00 2.882303983E+02
4.305860000E-03 1.933200000E+00 0.000000000E+00 2.879331887E+02
4.311120000E-03 1.930100000E+00 0.000000000E+00 2.875818813E+02
4.316380000E-03 1.927000000E+00 0.000000000E+00 2.872314300E+02
4.326900000E-03 1.920500000E+00 0.000000000E+00 2.865330837E+02
4.337420000E-03 1.914000000E+00 0.000000000E+00 2.858381250E+02
4.338780000E-03 1.913100000E+00 0.000000000E+00 2.857485284E+02
4.341170000E-03 1.911700000E+00 0.000000000E+00 2.855912116E+02
4.344750000E-03 1.909500000E+00 0.000000000E+00 2.853558893E+02
4.348340000E-03 1.907200000E+00 0.000000000E+00 2.851202988E+02
4.348980000E-03 1.906800000E+00 0.000000000E+00 2.850783402E+02
4.351410000E-03 1.905300000E+00 0.000000000E+00 2.849191412E+02
4.358680000E-03 1.900800000E+00 0.000000000E+00 2.844439142E+02
4.360890000E-03 1.899400000E+00 0.000000000E+00 2.842997645E+02
4.364750000E-03 1.896900000E+00 0.000000000E+00 2.840483418E+02
4.370530000E-03 1.892900000E+00 0.000000000E+00 2.836726896E+02
4.376320000E-03 1.888900000E+00 0.000000000E+00 2.832973823E+02
4.383170000E-03 1.884100000E+00 0.000000000E+00 2.828546463E+02
4.390020000E-03 1.879300000E+00 0.000000000E+00 2.824132920E+02
4.399300000E-03 1.872800000E+00 0.000000000E+00 2.818175619E+02
4.403520000E-03 1.869700000E+00 0.000000000E+00 2.815474893E+02
4.408020000E-03 1.866300000E+00 0.000000000E+00 2.812600669E+02
4.414800000E-03 1.861100000E+00 0.000000000E+00 2.808281236E+02
4.418190000E-03 1.858500000E+00 0.000000000E+00 2.806126491E+02
4.421580000E-03 1.855900000E+00 0.000000000E+00 2.803975050E+02
4.425360000E-03 1.853000000E+00 0.000000000E+00 2.801579984E+02
4.427250000E-03 1.851500000E+00 0.000000000E+00 2.800383986E+02
4.429140000E-03 1.850100000E+00 0.000000000E+00 2.799189007E+02
4.433790000E-03 1.846500000E+00 0.000000000E+00 2.796253318E+02
4.441300000E-03 1.840400000E+00 0.000000000E+00 2.791525004E+02
4.441960000E-03 1.839900000E+00 0.000000000E+00 2.791110231E+02
4.443940000E-03 1.838200000E+00 0.000000000E+00 2.789866650E+02
4.453140000E-03 1.830500000E+00 0.000000000E+00 2.784102903E+02
4.455430000E-03 1.828600000E+00 0.000000000E+00 2.782671931E+02
4.459420000E-03 1.825200000E+00 0.000000000E+00 2.780182176E+02
4.465410000E-03 1.820100000E+00 0.000000000E+00 2.776452778E+02
4.471400000E-03 1.814800000E+00 0.000000000E+00 2.772733372E+02
4.480230000E-03 1.806700000E+00 0.000000000E+00 2.767268645E+02
4.484640000E-03 1.802600000E+00 0.000000000E+00 2.764547433E+02
4.489060000E-03 1.798500000E+00 0.000000000E+00 2.761825416E+02
4.496000000E-03 1.791600000E+00 0.000000000E+00 2.757562278E+02
4.509390000E-03 1.778200000E+00 0.000000000E+00 2.749374084E+02
4.511660000E-03 1.776000000E+00 0.000000000E+00 2.747990762E+02
4.514250000E-03 1.773400000E+00 0.000000000E+00 2.746414133E+02
4.524790000E-03 1.762800000E+00 0.000000000E+00 2.740016664E+02
4.531540000E-03 1.755800000E+00 0.000000000E+00 2.735935245E+02
4.536810000E-03 1.750200000E+00 0.000000000E+00 2.732757158E+02
4.544340000E-03 1.741500000E+00 0.000000000E+00 2.728228962E+02
4.551300000E-03 1.733400000E+00 0.000000000E+00 2.724056863E+02
4.557740000E-03 1.726000000E+00 0.000000000E+00 2.720207822E+02
4.568470000E-03 1.713400000E+00 0.000000000E+00 2.713818850E+02
4.571620000E-03 1.709500000E+00 0.000000000E+00 2.711948937E+02
4.581060000E-03 1.696600000E+00 0.000000000E+00 2.706360537E+02
4.595290000E-03 1.677200000E+00 0.000000000E+00 2.697979888E+02
4.611100000E-03 1.654500000E+00 0.000000000E+00 2.688729370E+02
4.623690000E-03 1.636400000E+00 0.000000000E+00 2.681408139E+02
4.659720000E-03 1.573600000E+00 0.000000000E+00 2.660674890E+02
4.695910000E-03 1.498500000E+00 6.676590000E-06 2.640169850E+02
4.724570000E-03 1.422200000E+00 1.572340000E-04 2.624154156E+02
4.757070000E-03 1.306000000E+00 2.931250000E-03 2.606226101E+02
4.775990000E-03 1.214000000E+00 1.184960000E-02 2.595901583E+02
4.809900000E-03 9.865000000E-01 8.560770000E-02 2.577600366E+02
4.840670000E-03 7.536000000E-01 3.008650000E-01 2.561215699E+02
