# Data retrieved from https://www-nds.iaea.org/epdl97/za1to100.htm 03/01/2021
# Element, Ar  (Z = 18) 
# Atomic weight, g mol-1 = 39.948 
# Nominal density, g cm-3 =  1.78370E-3 
# Relativistic correction estimate f_rel(5CL)*,  e atom-1 =  0 
# Nuclear Thomson correction f_NT*, e atom-1 =  0 
#    E [keV]      f1 [e atom-1]      f2 [e atom-1]    Wavelength [nm] 
1.000000000E-03 1.116700000E+00 0.000000000E+00 1.239800000E+03
1.406250000E-03 1.099000000E+00 0.000000000E+00 8.816355556E+02
1.779790000E-03 1.082700000E+00 0.000000000E+00 6.965990370E+02
2.002260000E-03 1.073000000E+00 0.000000000E+00 6.192003037E+02
2.252540000E-03 1.054300000E+00 0.000000000E+00 5.504008808E+02
2.534110000E-03 1.033300000E+00 0.000000000E+00 4.892447447E+02
3.000000000E-03 9.985000000E-01 0.000000000E+00 4.132666667E+02
3.207230000E-03 9.770000000E-01 0.000000000E+00 3.865641067E+02
3.750000000E-03 9.207000000E-01 0.000000000E+00 3.306133333E+02
4.059150000E-03 8.789000000E-01 0.000000000E+00 3.054334035E+02
4.687500000E-03 7.934000000E-01 0.000000000E+00 2.644906667E+02
5.137360000E-03 7.116000000E-01 0.000000000E+00 2.413301774E+02
5.859380000E-03 5.803000000E-01 0.000000000E+00 2.115923528E+02
6.365160000E-03 4.631000000E-01 0.000000000E+00 1.947790786E+02
6.591800000E-03 4.106000000E-01 0.000000000E+00 1.880821627E+02
6.877580000E-03 3.301000000E-01 0.000000000E+00 1.802668962E+02
7.415770000E-03 1.784000000E-01 0.000000000E+00 1.671842573E+02
7.718270000E-03 7.350000000E-02 0.000000000E+00 1.606318514E+02
8.061550000E-03 -4.570000000E-02 0.000000000E+00 1.537917646E+02
8.243200000E-03 -1.102000000E-01 0.000000000E+00 1.504027562E+02
8.361930000E-03 -1.607000000E-01 0.000000000E+00 1.482672063E+02
8.624750000E-03 -2.726000000E-01 0.000000000E+00 1.437490942E+02
8.854720000E-03 -3.705000000E-01 0.000000000E+00 1.400157204E+02
8.967200000E-03 -4.208000000E-01 0.000000000E+00 1.382594344E+02
9.055950000E-03 -4.662000000E-01 0.000000000E+00 1.369044661E+02
9.408090000E-03 -6.465000000E-01 0.000000000E+00 1.317802019E+02
9.540490000E-03 -7.142000000E-01 0.000000000E+00 1.299513966E+02
9.600700000E-03 -7.489000000E-01 0.000000000E+00 1.291364171E+02
9.672200000E-03 -7.924000000E-01 0.000000000E+00 1.281817994E+02
9.870280000E-03 -9.128000000E-01 0.000000000E+00 1.256094052E+02
1.001880000E-02 -1.003200000E+00 0.000000000E+00 1.237473550E+02
1.013030000E-02 -1.076700000E+00 0.000000000E+00 1.223853193E+02
1.021380000E-02 -1.140400000E+00 0.000000000E+00 1.213847931E+02
1.027650000E-02 -1.189300000E+00 0.000000000E+00 1.206441882E+02
1.032350000E-02 -1.225900000E+00 0.000000000E+00 1.200949290E+02
1.039400000E-02 -1.280800000E+00 0.000000000E+00 1.192803541E+02
1.042930000E-02 -1.308300000E+00 0.000000000E+00 1.188766264E+02
1.044690000E-02 -1.322000000E+00 0.000000000E+00 1.186763538E+02
1.046450000E-02 -1.335700000E+00 0.000000000E+00 1.184767547E+02
1.049030000E-02 -1.355800000E+00 0.000000000E+00 1.181853712E+02
1.051600000E-02 -1.375800000E+00 0.000000000E+00 1.178965386E+02
1.054180000E-02 -1.395900000E+00 0.000000000E+00 1.176079986E+02
1.056760000E-02 -1.416000000E+00 0.000000000E+00 1.173208676E+02
1.059330000E-02 -1.436000000E+00 0.000000000E+00 1.170362399E+02
1.061910000E-02 -1.456100000E+00 0.000000000E+00 1.167518905E+02
1.064480000E-02 -1.476200000E+00 0.000000000E+00 1.164700135E+02
1.065770000E-02 -1.486200000E+00 0.000000000E+00 1.163290391E+02
1.067060000E-02 -1.496200000E+00 0.000000000E+00 1.161884055E+02
1.068350000E-02 -1.506200000E+00 0.000000000E+00 1.160481116E+02
1.069630000E-02 -1.516300000E+00 0.000000000E+00 1.159092396E+02
1.072210000E-02 -1.536300000E+00 0.000000000E+00 1.156303336E+02
1.074790000E-02 -1.556400000E+00 0.000000000E+00 1.153527666E+02
1.075110000E-02 -1.558900000E+00 0.000000000E+00 1.153184325E+02
1.075670000E-02 -1.563300000E+00 0.000000000E+00 1.152583971E+02
1.077360000E-02 -1.576500000E+00 0.000000000E+00 1.150775971E+02
1.078230000E-02 -1.583300000E+00 0.000000000E+00 1.149847435E+02
1.079090000E-02 -1.589900000E+00 0.000000000E+00 1.148931044E+02
1.079840000E-02 -1.595800000E+00 0.000000000E+00 1.148133057E+02
1.081150000E-02 -1.606000000E+00 0.000000000E+00 1.146741895E+02
1.083120000E-02 -1.621300000E+00 0.000000000E+00 1.144656178E+02
1.084100000E-02 -1.629000000E+00 0.000000000E+00 1.143621437E+02
1.085090000E-02 -1.636700000E+00 0.000000000E+00 1.142578035E+02
1.088570000E-02 -1.663700000E+00 0.000000000E+00 1.138925379E+02
1.089470000E-02 -1.670800000E+00 0.000000000E+00 1.137984525E+02
1.090240000E-02 -1.676800000E+00 0.000000000E+00 1.137180804E+02
1.092090000E-02 -1.691200000E+00 0.000000000E+00 1.135254420E+02
1.094710000E-02 -1.711600000E+00 0.000000000E+00 1.132537384E+02
1.097340000E-02 -1.732100000E+00 0.000000000E+00 1.129823027E+02
1.097970000E-02 -1.737000000E+00 0.000000000E+00 1.129174750E+02
1.102280000E-02 -1.770600000E+00 0.000000000E+00 1.124759589E+02
1.103400000E-02 -1.781400000E+00 0.000000000E+00 1.123617908E+02
1.105210000E-02 -1.798900000E+00 0.000000000E+00 1.121777762E+02
1.107830000E-02 -1.824400000E+00 0.000000000E+00 1.119124775E+02
1.110450000E-02 -1.849800000E+00 0.000000000E+00 1.116484308E+02
1.113080000E-02 -1.875800000E+00 0.000000000E+00 1.113846264E+02
1.115700000E-02 -1.903600000E+00 0.000000000E+00 1.111230618E+02
1.118320000E-02 -1.931500000E+00 0.000000000E+00 1.108627227E+02
1.119790000E-02 -1.947100000E+00 0.000000000E+00 1.107171880E+02
1.122630000E-02 -1.977200000E+00 0.000000000E+00 1.104370986E+02
1.125280000E-02 -2.005500000E+00 0.000000000E+00 1.101770226E+02
1.127780000E-02 -2.032000000E+00 0.000000000E+00 1.099327883E+02
1.132450000E-02 -2.081600000E+00 0.000000000E+00 1.094794472E+02
1.143250000E-02 -2.196400000E+00 0.000000000E+00 1.084452220E+02
1.146880000E-02 -2.235000000E+00 0.000000000E+00 1.081019810E+02
1.165170000E-02 -2.429300000E+00 0.000000000E+00 1.064050739E+02
1.165770000E-02 -2.435700000E+00 0.000000000E+00 1.063503092E+02
1.170910000E-02 -2.490300000E+00 0.000000000E+00 1.058834582E+02
1.171500000E-02 -2.496600000E+00 0.000000000E+00 1.058301323E+02
1.173770000E-02 -2.522500000E+00 0.000000000E+00 1.056254633E+02
1.174370000E-02 -2.530200000E+00 0.000000000E+00 1.055714979E+02
1.176640000E-02 -2.559500000E+00 0.000000000E+00 1.053678270E+02
1.177240000E-02 -2.567200000E+00 0.000000000E+00 1.053141246E+02
1.180110000E-02 -2.604300000E+00 0.000000000E+00 1.050580031E+02
1.188720000E-02 -2.719200000E+00 0.000000000E+00 1.042970590E+02
1.191590000E-02 -2.759500000E+00 0.000000000E+00 1.040458547E+02
1.194460000E-02 -2.799700000E+00 0.000000000E+00 1.037958575E+02
1.197330000E-02 -2.840000000E+00 0.000000000E+00 1.035470589E+02
1.200200000E-02 -2.880200000E+00 0.000000000E+00 1.032994501E+02
1.213730000E-02 -3.070000000E+00 0.000000000E+00 1.021479242E+02
1.217420000E-02 -3.121700000E+00 0.000000000E+00 1.018383138E+02
1.220280000E-02 -3.161900000E+00 0.000000000E+00 1.015996329E+02
1.223150000E-02 -3.202200000E+00 0.000000000E+00 1.013612394E+02
1.228930000E-02 -3.290600000E+00 0.000000000E+00 1.008845093E+02
1.231840000E-02 -3.339200000E+00 0.000000000E+00 1.006461878E+02
1.234760000E-02 -3.387800000E+00 0.000000000E+00 1.004081765E+02
1.237680000E-02 -3.436400000E+00 0.000000000E+00 1.001712882E+02
1.240590000E-02 -3.486100000E+00 0.000000000E+00 9.993632062E+01
1.243510000E-02 -3.538500000E+00 0.000000000E+00 9.970165097E+01
1.248580000E-02 -3.629500000E+00 0.000000000E+00 9.929680117E+01
1.253640000E-02 -3.720500000E+00 0.000000000E+00 9.889601480E+01
1.257090000E-02 -3.782400000E+00 0.000000000E+00 9.862460126E+01
1.260170000E-02 -3.837800000E+00 0.000000000E+00 9.838355143E+01
1.263280000E-02 -3.893600000E+00 0.000000000E+00 9.814134634E+01
1.266370000E-02 -3.950600000E+00 0.000000000E+00 9.790187702E+01
1.269470000E-02 -4.015400000E+00 0.000000000E+00 9.766280416E+01
1.273060000E-02 -4.090500000E+00 0.000000000E+00 9.738739729E+01
1.276490000E-02 -4.162400000E+00 0.000000000E+00 9.712571191E+01
1.278950000E-02 -4.213900000E+00 0.000000000E+00 9.693889519E+01
1.281410000E-02 -4.266400000E+00 0.000000000E+00 9.675279575E+01
1.283180000E-02 -4.305800000E+00 0.000000000E+00 9.661933634E+01
1.284940000E-02 -4.345200000E+00 0.000000000E+00 9.648699550E+01
1.288030000E-02 -4.414400000E+00 0.000000000E+00 9.625552200E+01
1.291120000E-02 -4.483700000E+00 0.000000000E+00 9.602515645E+01
1.291650000E-02 -4.495500000E+00 0.000000000E+00 9.598575465E+01
1.293270000E-02 -4.531600000E+00 0.000000000E+00 9.586551919E+01
1.294560000E-02 -4.560700000E+00 0.000000000E+00 9.576999135E+01
1.295920000E-02 -4.591900000E+00 0.000000000E+00 9.566948577E+01
1.297880000E-02 -4.646000000E+00 0.000000000E+00 9.552501002E+01
1.299750000E-02 -4.697500000E+00 0.000000000E+00 9.538757453E+01
1.301630000E-02 -4.749100000E+00 0.000000000E+00 9.524980217E+01
1.303100000E-02 -4.789700000E+00 0.000000000E+00 9.514235285E+01
1.305310000E-02 -4.850600000E+00 0.000000000E+00 9.498126882E+01
1.307520000E-02 -4.911500000E+00 0.000000000E+00 9.482072932E+01
1.310660000E-02 -4.997800000E+00 0.000000000E+00 9.459356355E+01
1.314000000E-02 -5.096200000E+00 0.000000000E+00 9.435312024E+01
1.317340000E-02 -5.196700000E+00 0.000000000E+00 9.411389618E+01
1.318970000E-02 -5.245900000E+00 0.000000000E+00 9.399758903E+01
1.322920000E-02 -5.364600000E+00 0.000000000E+00 9.371692922E+01
1.323620000E-02 -5.385700000E+00 0.000000000E+00 9.366736677E+01
1.326760000E-02 -5.480300000E+00 0.000000000E+00 9.344568724E+01
1.329460000E-02 -5.561400000E+00 0.000000000E+00 9.325590841E+01
1.329900000E-02 -5.574800000E+00 0.000000000E+00 9.322505452E+01
1.332690000E-02 -5.658500000E+00 0.000000000E+00 9.302988692E+01
1.335940000E-02 -5.756500000E+00 0.000000000E+00 9.280356902E+01
1.339330000E-02 -5.858400000E+00 0.000000000E+00 9.256867240E+01
1.340510000E-02 -5.893900000E+00 0.000000000E+00 9.248718771E+01
1.342460000E-02 -5.967700000E+00 0.000000000E+00 9.235284478E+01
1.343840000E-02 -6.020100000E+00 0.000000000E+00 9.225800691E+01
1.345910000E-02 -6.098700000E+00 0.000000000E+00 9.211611475E+01
1.346950000E-02 -6.138000000E+00 0.000000000E+00 9.204499053E+01
1.350110000E-02 -6.257800000E+00 0.000000000E+00 9.182955463E+01
1.351170000E-02 -6.298100000E+00 0.000000000E+00 9.175751386E+01
1.352230000E-02 -6.338400000E+00 0.000000000E+00 9.168558603E+01
1.355540000E-02 -6.463600000E+00 0.000000000E+00 9.146170530E+01
1.359140000E-02 -6.606900000E+00 0.000000000E+00 9.121944759E+01
1.362230000E-02 -6.736000000E+00 0.000000000E+00 9.101253092E+01
1.368040000E-02 -7.029900000E+00 0.000000000E+00 9.062600509E+01
1.371760000E-02 -7.222100000E+00 0.000000000E+00 9.038024144E+01
1.386340000E-02 -8.013200000E+00 4.983160000E-06 8.942972142E+01
1.390550000E-02 -8.295600000E+00 3.021770000E-05 8.915896588E+01
1.405100000E-02 -9.461000000E+00 5.107460000E-03 8.823571276E+01
1.414000000E-02 -1.048020000E+01 5.433030000E-02 8.768033946E+01
1.423890000E-02 -1.206430000E+01 3.995200000E-01 8.707133276E+01
1.430780000E-02 -1.340030000E+01 1.120530000E+00 8.665203595E+01
1.437130000E-02 -1.454950000E+01 2.297820000E+00 8.626916145E+01
1.442190000E-02 -1.519970000E+01 3.550370000E+00 8.596648153E+01
1.457670000E-02 -1.521580000E+01 7.717850000E+00 8.505354436E+01
1.490810000E-02 -1.116670000E+01 1.161380000E+01 8.316284436E+01
1.500590000E-02 -1.038270000E+01 1.192710000E+01 8.262083580E+01
1.530000000E-02 -8.688700000E+00 1.276270000E+01 8.103267974E+01
1.570000000E-02 -6.945300000E+00 1.381820000E+01 7.896815287E+01
1.603250000E-02 -5.637500000E+00 1.461770000E+01 7.733042258E+01
1.630000000E-02 -4.596800000E+00 1.520130000E+01 7.606134969E+01
1.665540000E-02 -3.194400000E+00 1.586040000E+01 7.443832030E+01
1.690000000E-02 -2.213000000E+00 1.623770000E+01 7.336094675E+01
1.715280000E-02 -1.184200000E+00 1.654630000E+01 7.227974441E+01
1.808550000E-02 2.628500000E+00 1.693150000E+01 6.855215504E+01
1.890160000E-02 5.714500000E+00 1.631120000E+01 6.559233081E+01
1.965000000E-02 8.090160000E+00 1.511190000E+01 6.309414758E+01
2.050030000E-02 1.007152000E+01 1.331080000E+01 6.047716375E+01
2.119930000E-02 1.120321000E+01 1.170960000E+01 5.848306312E+01
2.197080000E-02 1.193241000E+01 9.984740000E+00 5.642944271E+01
2.291610000E-02 1.229221000E+01 8.082780000E+00 5.410170142E+01
2.397590000E-02 1.224515000E+01 6.311280000E+00 5.171025905E+01
2.515940000E-02 1.188570000E+01 4.769170000E+00 4.927780472E+01
2.612500000E-02 1.148354000E+01 3.798360000E+00 4.745645933E+01
2.725830000E-02 1.096440000E+01 2.923480000E+00 4.548339405E+01
2.857990000E-02 1.035121000E+01 2.176630000E+00 4.338013779E+01
2.970540000E-02 9.879240000E+00 1.748370000E+00 4.173651929E+01
3.077730000E-02 9.470110000E+00 1.422150000E+00 4.028293580E+01
3.200000000E-02 9.046910000E+00 1.149170000E+00 3.874375000E+01
3.334820000E-02 8.631050000E+00 9.367950000E-01 3.717741887E+01
3.476910000E-02 8.249280000E+00 7.873790000E-01 3.565809871E+01
3.630780000E-02 7.893800000E+00 6.874250000E-01 3.414693262E+01
3.810000000E-02 7.544900000E+00 6.279890000E-01 3.254068241E+01
3.985000000E-02 7.260600000E+00 6.107400000E-01 3.111166876E+01
4.220000000E-02 6.950300000E+00 6.295810000E-01 2.937914692E+01
4.570880000E-02 6.607300000E+00 7.113940000E-01 2.712387987E+01
5.500000000E-02 6.126200000E+00 1.033230000E+00 2.254181818E+01
6.580000000E-02 5.986700000E+00 1.385840000E+00 1.884194529E+01
7.673620000E-02 6.032600000E+00 1.635140000E+00 1.615665097E+01
9.000000000E-02 6.156900000E+00 1.799190000E+00 1.377555556E+01
1.018060000E-01 6.235400000E+00 1.853290000E+00 1.217806416E+01
1.280000000E-01 6.275200000E+00 1.842120000E+00 9.685937500E+00
1.600000000E-01 5.892000000E+00 1.714660000E+00 7.748750000E+00
1.804090000E-01 5.306300000E+00 1.611810000E+00 6.872162697E+00
1.898220000E-01 4.947800000E+00 1.562390000E+00 6.531382032E+00
2.039490000E-01 4.140600000E+00 1.488330000E+00 6.078970723E+00
2.120840000E-01 3.508200000E+00 1.446680000E+00 5.845796948E+00
2.185150000E-01 2.865900000E+00 1.414680000E+00 5.673752374E+00
2.219740000E-01 2.447400000E+00 1.397480000E+00 5.585338823E+00
2.264640000E-01 1.736700000E+00 1.375470000E+00 5.474600820E+00
2.296880000E-01 1.200200000E+00 1.359840000E+00 5.397756957E+00
2.316010000E-01 8.028000000E-01 1.350920000E+00 5.353172050E+00
2.333590000E-01 4.001000000E-01 1.342780000E+00 5.312844159E+00
2.340030000E-01 2.175000000E-01 1.339810000E+00 5.298222672E+00
2.356910000E-01 -2.651000000E-01 1.332020000E+00 5.260277227E+00
2.374730000E-01 -8.299000000E-01 1.324030000E+00 5.220804049E+00
2.390010000E-01 -1.414200000E+00 1.317300000E+00 5.187425994E+00
2.402130000E-01 -1.965900000E+00 1.313120000E+00 5.161252722E+00
2.414220000E-01 -2.641600000E+00 1.317220000E+00 5.135406052E+00
2.424400000E-01 -3.345500000E+00 1.349570000E+00 5.113842600E+00
2.433710000E-01 -4.137300000E+00 1.449090000E+00 5.094279927E+00
2.442430000E-01 -5.023300000E+00 1.673280000E+00 5.076092252E+00
2.451150000E-01 -6.026900000E+00 2.112010000E+00 5.058033984E+00
2.460450000E-01 -7.137600000E+00 2.907200000E+00 5.038915646E+00
2.471830000E-01 -8.325800000E+00 4.398080000E+00 5.015717100E+00
2.485870000E-01 -9.132800000E+00 6.833640000E+00 4.987388721E+00
2.498410000E-01 -9.006600000E+00 9.155080000E+00 4.962356058E+00
2.514350000E-01 -7.878000000E+00 1.164780000E+01 4.930896653E+00
2.531960000E-01 -6.046600000E+00 1.339940000E+01 4.896601842E+00
2.552960000E-01 -3.984900000E+00 1.438530000E+01 4.856323640E+00
2.564460000E-01 -3.053700000E+00 1.464570000E+01 4.834546064E+00
2.581140000E-01 -1.892300000E+00 1.488570000E+01 4.803303966E+00
2.600160000E-01 -7.989000000E-01 1.503710000E+01 4.768168113E+00
2.603480000E-01 -6.227000000E-01 1.505840000E+01 4.762087667E+00
2.624390000E-01 3.994000000E-01 1.513130000E+01 4.724145420E+00
2.630400000E-01 6.618000000E-01 1.513550000E+01 4.713351582E+00
2.648490000E-01 1.409600000E+00 1.513500000E+01 4.681157943E+00
2.674560000E-01 2.376900000E+00 1.508300000E+01 4.635528835E+00
2.710000000E-01 3.505900000E+00 1.492910000E+01 4.574907749E+00
2.758840000E-01 4.727400000E+00 1.459800000E+01 4.493917734E+00
2.822250000E-01 5.945100000E+00 1.415190000E+01 4.392948888E+00
2.906450000E-01 7.089300000E+00 1.354630000E+01 4.265684942E+00
3.028640000E-01 8.010230000E+00 1.286350000E+01 4.093586560E+00
3.082980000E-01 8.096810000E+00 1.263350000E+01 4.021433808E+00
3.112750000E-01 7.979400000E+00 1.275050000E+01 3.982973255E+00
3.169450000E-01 8.545590000E+00 1.345130000E+01 3.911719699E+00
3.273410000E-01 9.924750000E+00 1.320210000E+01 3.787487666E+00
3.481000000E-01 1.146571000E+01 1.247360000E+01 3.561620224E+00
3.758370000E-01 1.289802000E+01 1.160030000E+01 3.298770478E+00
4.062090000E-01 1.407853000E+01 1.072970000E+01 3.052123414E+00
4.347720000E-01 1.492954000E+01 9.910370000E+00 2.851609579E+00
4.650500000E-01 1.557631000E+01 9.107200000E+00 2.665949898E+00
5.005680000E-01 1.612772000E+01 8.282760000E+00 2.476786371E+00
5.313620000E-01 1.647757000E+01 7.653270000E+00 2.333249273E+00
5.627460000E-01 1.675982000E+01 7.079820000E+00 2.203125389E+00
6.017440000E-01 1.701407300E+01 6.448820000E+00 2.060344598E+00
6.339870000E-01 1.716710600E+01 5.983930000E+00 1.955560603E+00
6.821910000E-01 1.732539400E+01 5.385510000E+00 1.817379590E+00
7.282290000E-01 1.742674000E+01 4.892750000E+00 1.702486443E+00
7.904800000E-01 1.750943300E+01 4.330530000E+00 1.568414128E+00
8.558350000E-01 1.754801100E+01 3.840050000E+00 1.448643722E+00
9.276110000E-01 1.755704300E+01 3.392570000E+00 1.336551636E+00
1.036980000E+00 1.753228000E+01 2.851140000E+00 1.195587186E+00
1.194990000E+00 1.744767300E+01 2.274290000E+00 1.037498222E+00
1.375130000E+00 1.732677300E+01 1.810080000E+00 9.015874863E-01
1.569570000E+00 1.718858500E+01 1.454640000E+00 7.898978701E-01
1.795870000E+00 1.702119900E+01 1.160440000E+00 6.903617745E-01
2.041740000E+00 1.682502000E+01 9.333840000E-01 6.072271690E-01
2.316350000E+00 1.657256000E+01 7.513590000E-01 5.352386297E-01
2.585240000E+00 1.624166000E+01 6.211310000E-01 4.795686281E-01
2.770130000E+00 1.590738000E+01 5.506730000E-01 4.475602228E-01
2.901860000E+00 1.554401000E+01 5.074770000E-01 4.272432164E-01
2.988860000E+00 1.517120000E+01 4.818110000E-01 4.148069833E-01
3.058550000E+00 1.470297000E+01 4.627460000E-01 4.053554789E-01
3.099410000E+00 1.422034000E+01 4.571430000E-01 4.000116151E-01
3.114140000E+00 1.394867000E+01 4.766420000E-01 3.981195450E-01
3.123070000E+00 1.374118000E+01 5.148260000E-01 3.969811756E-01
3.130620000E+00 1.353842000E+01 5.778820000E-01 3.960237908E-01
3.138380000E+00 1.330860000E+01 6.872010000E-01 3.950445771E-01
3.146140000E+00 1.307011000E+01 8.557590000E-01 3.940701940E-01
3.153570000E+00 1.285258000E+01 1.081610000E+00 3.931417409E-01
3.164110000E+00 1.260842000E+01 1.509490000E+00 3.918321424E-01
3.176930000E+00 1.252531000E+01 2.144810000E+00 3.902509656E-01
3.191010000E+00 1.264962000E+01 2.840570000E+00 3.885290237E-01
3.204620000E+00 1.301606000E+01 3.361690000E+00 3.868789435E-01
3.221380000E+00 1.355893000E+01 3.718520000E+00 3.848661133E-01
3.245240000E+00 1.420511000E+01 3.864650000E+00 3.820364596E-01
3.276440000E+00 1.474604000E+01 3.851260000E+00 3.783985057E-01
3.318490000E+00 1.522834000E+01 3.803280000E+00 3.736036571E-01
3.377710000E+00 1.570295000E+01 3.722150000E+00 3.670534178E-01
3.457480000E+00 1.615237000E+01 3.597390000E+00 3.585848653E-01
3.559010000E+00 1.655634000E+01 3.446930000E+00 3.483553011E-01
3.657000000E+00 1.684402000E+01 3.302010000E+00 3.390210555E-01
3.744080000E+00 1.704836900E+01 3.180580000E+00 3.311360868E-01
3.845920000E+00 1.724479200E+01 3.046530000E+00 3.223676000E-01
3.953060000E+00 1.740988800E+01 2.915200000E+00 3.136304534E-01
4.054570000E+00 1.753810600E+01 2.799660000E+00 3.057784179E-01
