# Data retrieved from https://www-nds.iaea.org/epdl97/za1to100.htm 03/01/2021
# Element, Au  (Z = 79) 
# Atomic weight, g mol-1 = 196.97 
# Nominal density, g cm-3 =  1.93200E+1 
# Relativistic correction estimate f_rel(5CL)*,  e atom-1 =  0 
# Nuclear Thomson correction f_NT*, e atom-1 =  0 
#    E [keV]      f1 [e atom-1]      f2 [e atom-1]    Wavelength [nm] 
1.000000000E-03 2.372400000E+00 0.000000000E+00 1.239800000E+03
1.125000000E-03 2.365300000E+00 0.000000000E+00 1.102044444E+03
1.241700000E-03 2.358700000E+00 0.000000000E+00 9.984698397E+02
1.445910000E-03 2.347200000E+00 0.000000000E+00 8.574530918E+02
1.599070000E-03 2.338500000E+00 0.000000000E+00 7.753256580E+02
1.828820000E-03 2.325500000E+00 0.000000000E+00 6.779234698E+02
2.000000000E-03 2.315800000E+00 0.000000000E+00 6.199000000E+02
2.058560000E-03 2.308800000E+00 0.000000000E+00 6.022656614E+02
2.063630000E-03 2.308200000E+00 0.000000000E+00 6.007859936E+02
2.068690000E-03 2.307600000E+00 0.000000000E+00 5.993164756E+02
2.073760000E-03 2.307000000E+00 0.000000000E+00 5.978512460E+02
2.078830000E-03 2.306400000E+00 0.000000000E+00 5.963931635E+02
2.083900000E-03 2.305800000E+00 0.000000000E+00 5.949421757E+02
2.088960000E-03 2.305200000E+00 0.000000000E+00 5.935010723E+02
2.094030000E-03 2.304600000E+00 0.000000000E+00 5.920641061E+02
2.099100000E-03 2.304000000E+00 0.000000000E+00 5.906340813E+02
2.104160000E-03 2.303400000E+00 0.000000000E+00 5.892137480E+02
2.109230000E-03 2.302800000E+00 0.000000000E+00 5.877974427E+02
2.114300000E-03 2.302200000E+00 0.000000000E+00 5.863879298E+02
2.119360000E-03 2.301600000E+00 0.000000000E+00 5.849879209E+02
2.124430000E-03 2.301000000E+00 0.000000000E+00 5.835918340E+02
2.134560000E-03 2.299800000E+00 0.000000000E+00 5.808222772E+02
2.139630000E-03 2.299200000E+00 0.000000000E+00 5.794459790E+02
2.144700000E-03 2.298600000E+00 0.000000000E+00 5.780761878E+02
2.149770000E-03 2.298000000E+00 0.000000000E+00 5.767128577E+02
2.154830000E-03 2.297400000E+00 0.000000000E+00 5.753586130E+02
2.159900000E-03 2.296800000E+00 0.000000000E+00 5.740080559E+02
2.358360000E-03 2.273200000E+00 0.000000000E+00 5.257043030E+02
2.532000000E-03 2.252600000E+00 0.000000000E+00 4.896524487E+02
2.683950000E-03 2.234600000E+00 0.000000000E+00 4.619311090E+02
2.949850000E-03 2.203000000E+00 0.000000000E+00 4.202925572E+02
3.149270000E-03 2.179300000E+00 0.000000000E+00 3.936785350E+02
3.298840000E-03 2.161600000E+00 0.000000000E+00 3.758290793E+02
3.523200000E-03 2.134900000E+00 0.000000000E+00 3.518960036E+02
3.635370000E-03 2.121600000E+00 0.000000000E+00 3.410381887E+02
3.747550000E-03 2.108300000E+00 0.000000000E+00 3.308294753E+02
3.756770000E-03 2.107200000E+00 0.000000000E+00 3.300175417E+02
3.766000000E-03 2.106100000E+00 0.000000000E+00 3.292087095E+02
3.775220000E-03 2.105000000E+00 0.000000000E+00 3.284047022E+02
3.784450000E-03 2.103900000E+00 0.000000000E+00 3.276037469E+02
3.793670000E-03 2.102800000E+00 0.000000000E+00 3.268075505E+02
3.802890000E-03 2.101700000E+00 0.000000000E+00 3.260152147E+02
3.812120000E-03 2.100600000E+00 0.000000000E+00 3.252258586E+02
3.821340000E-03 2.099500000E+00 0.000000000E+00 3.244411646E+02
3.830570000E-03 2.098400000E+00 0.000000000E+00 3.236594032E+02
3.839790000E-03 2.097300000E+00 0.000000000E+00 3.228822410E+02
3.849010000E-03 2.096200000E+00 0.000000000E+00 3.221088020E+02
3.858240000E-03 2.095100000E+00 0.000000000E+00 3.213382268E+02
3.867460000E-03 2.094000000E+00 0.000000000E+00 3.205721585E+02
3.885910000E-03 2.091800000E+00 0.000000000E+00 3.190501067E+02
3.895130000E-03 2.090800000E+00 0.000000000E+00 3.182948964E+02
3.904360000E-03 2.089700000E+00 0.000000000E+00 3.175424397E+02
3.913580000E-03 2.088600000E+00 0.000000000E+00 3.167943418E+02
3.922810000E-03 2.087500000E+00 0.000000000E+00 3.160489547E+02
3.932030000E-03 2.086400000E+00 0.000000000E+00 3.153078690E+02
4.002050000E-03 2.077800000E+00 0.000000000E+00 3.097912320E+02
4.124570000E-03 2.050400000E+00 0.000000000E+00 3.005889099E+02
4.216470000E-03 2.029800000E+00 0.000000000E+00 2.940374294E+02
4.285390000E-03 2.014400000E+00 0.000000000E+00 2.893085577E+02
4.337080000E-03 2.002800000E+00 0.000000000E+00 2.858605329E+02
4.375850000E-03 1.994100000E+00 0.000000000E+00 2.833278106E+02
4.404920000E-03 1.987600000E+00 0.000000000E+00 2.814580060E+02
4.426730000E-03 1.982700000E+00 0.000000000E+00 2.800712942E+02
4.443090000E-03 1.979000000E+00 0.000000000E+00 2.790400375E+02
4.467620000E-03 1.973500000E+00 0.000000000E+00 2.775079349E+02
4.479880000E-03 1.970800000E+00 0.000000000E+00 2.767484843E+02
4.486020000E-03 1.969400000E+00 0.000000000E+00 2.763696996E+02
4.492150000E-03 1.968100000E+00 0.000000000E+00 2.759925648E+02
4.503210000E-03 1.965600000E+00 0.000000000E+00 2.753147199E+02
4.514270000E-03 1.963100000E+00 0.000000000E+00 2.746401965E+02
4.525320000E-03 1.960600000E+00 0.000000000E+00 2.739695756E+02
4.536380000E-03 1.958100000E+00 0.000000000E+00 2.733016194E+02
4.547440000E-03 1.955700000E+00 0.000000000E+00 2.726369122E+02
4.558490000E-03 1.953200000E+00 0.000000000E+00 2.719760271E+02
4.564020000E-03 1.951900000E+00 0.000000000E+00 2.716464871E+02
4.569550000E-03 1.950700000E+00 0.000000000E+00 2.713177446E+02
4.575080000E-03 1.949500000E+00 0.000000000E+00 2.709897969E+02
4.580610000E-03 1.948200000E+00 0.000000000E+00 2.706626410E+02
4.588900000E-03 1.946400000E+00 0.000000000E+00 2.701736800E+02
4.591660000E-03 1.945800000E+00 0.000000000E+00 2.700112813E+02
4.602720000E-03 1.943300000E+00 0.000000000E+00 2.693624639E+02
4.604100000E-03 1.943000000E+00 0.000000000E+00 2.692817272E+02
4.606520000E-03 1.942400000E+00 0.000000000E+00 2.691402621E+02
4.610150000E-03 1.941600000E+00 0.000000000E+00 2.689283429E+02
4.610600000E-03 1.941500000E+00 0.000000000E+00 2.689020952E+02
4.611400000E-03 1.941300000E+00 0.000000000E+00 2.688554452E+02
4.612590000E-03 1.941100000E+00 0.000000000E+00 2.687860833E+02
4.613180000E-03 1.940900000E+00 0.000000000E+00 2.687517071E+02
4.614470000E-03 1.940600000E+00 0.000000000E+00 2.686765761E+02
4.615760000E-03 1.940400000E+00 0.000000000E+00 2.686014871E+02
4.618030000E-03 1.939900000E+00 0.000000000E+00 2.684694556E+02
4.627600000E-03 1.937700000E+00 0.000000000E+00 2.679142536E+02
4.631740000E-03 1.936800000E+00 0.000000000E+00 2.676747831E+02
4.635890000E-03 1.935800000E+00 0.000000000E+00 2.674351635E+02
4.641420000E-03 1.934600000E+00 0.000000000E+00 2.671165290E+02
4.646950000E-03 1.933400000E+00 0.000000000E+00 2.667986529E+02
4.652480000E-03 1.932100000E+00 0.000000000E+00 2.664815324E+02
4.658000000E-03 1.930900000E+00 0.000000000E+00 2.661657364E+02
4.663530000E-03 1.929700000E+00 0.000000000E+00 2.658501178E+02
4.669060000E-03 1.928400000E+00 0.000000000E+00 2.655352469E+02
4.680120000E-03 1.925900000E+00 0.000000000E+00 2.649077374E+02
4.691170000E-03 1.923500000E+00 0.000000000E+00 2.642837501E+02
4.696700000E-03 1.922200000E+00 0.000000000E+00 2.639725765E+02
4.710520000E-03 1.919100000E+00 0.000000000E+00 2.631981183E+02
4.713290000E-03 1.918500000E+00 0.000000000E+00 2.630434368E+02
4.716580000E-03 1.917800000E+00 0.000000000E+00 2.628599536E+02
4.723060000E-03 1.916300000E+00 0.000000000E+00 2.624993119E+02
4.729340000E-03 1.914900000E+00 0.000000000E+00 2.621507441E+02
4.735420000E-03 1.913600000E+00 0.000000000E+00 2.618141580E+02
4.741310000E-03 1.912200000E+00 0.000000000E+00 2.614889134E+02
4.747020000E-03 1.911000000E+00 0.000000000E+00 2.611743789E+02
4.752500000E-03 1.909700000E+00 0.000000000E+00 2.608732246E+02
4.755180000E-03 1.909100000E+00 0.000000000E+00 2.607261975E+02
4.839560000E-03 1.890200000E+00 0.000000000E+00 2.561803139E+02
4.860660000E-03 1.885500000E+00 0.000000000E+00 2.550682418E+02
4.876480000E-03 1.882000000E+00 0.000000000E+00 2.542407638E+02
4.888350000E-03 1.879300000E+00 0.000000000E+00 2.536234108E+02
4.906140000E-03 1.875300000E+00 0.000000000E+00 2.527037549E+02
4.915040000E-03 1.873300000E+00 0.000000000E+00 2.522461669E+02
4.919490000E-03 1.872300000E+00 0.000000000E+00 2.520179937E+02
4.923940000E-03 1.871300000E+00 0.000000000E+00 2.517902330E+02
4.930000000E-03 1.870000000E+00 0.000000000E+00 2.514807302E+02
4.948180000E-03 1.865900000E+00 0.000000000E+00 2.505567704E+02
4.960300000E-03 1.863200000E+00 0.000000000E+00 2.499445598E+02
4.972420000E-03 1.860500000E+00 0.000000000E+00 2.493353337E+02
4.984540000E-03 1.857700000E+00 0.000000000E+00 2.487290703E+02
4.990600000E-03 1.856400000E+00 0.000000000E+00 2.484270428E+02
4.996660000E-03 1.855000000E+00 0.000000000E+00 2.481257480E+02
5.002720000E-03 1.853700000E+00 0.000000000E+00 2.478251831E+02
5.008780000E-03 1.852300000E+00 0.000000000E+00 2.475253455E+02
5.014840000E-03 1.851000000E+00 0.000000000E+00 2.472262325E+02
5.020900000E-03 1.849600000E+00 0.000000000E+00 2.469278416E+02
5.029990000E-03 1.847600000E+00 0.000000000E+00 2.464816033E+02
5.034540000E-03 1.846500000E+00 0.000000000E+00 2.462588439E+02
5.039840000E-03 1.845400000E+00 0.000000000E+00 2.459998730E+02
5.042490000E-03 1.844800000E+00 0.000000000E+00 2.458705917E+02
5.043150000E-03 1.844600000E+00 0.000000000E+00 2.458384145E+02
5.043650000E-03 1.844500000E+00 0.000000000E+00 2.458140434E+02
5.043740000E-03 1.844500000E+00 0.000000000E+00 2.458096571E+02
5.044090000E-03 1.844400000E+00 0.000000000E+00 2.457926008E+02
5.044620000E-03 1.844300000E+00 0.000000000E+00 2.457667773E+02
5.044880000E-03 1.844200000E+00 0.000000000E+00 2.457541111E+02
5.045520000E-03 1.844100000E+00 0.000000000E+00 2.457229384E+02
5.057260000E-03 1.841500000E+00 0.000000000E+00 2.451525134E+02
5.060290000E-03 1.840800000E+00 0.000000000E+00 2.450057210E+02
5.069380000E-03 1.838700000E+00 0.000000000E+00 2.445663967E+02
5.075440000E-03 1.837400000E+00 0.000000000E+00 2.442743880E+02
5.081500000E-03 1.836000000E+00 0.000000000E+00 2.439830759E+02
5.087560000E-03 1.834700000E+00 0.000000000E+00 2.436924577E+02
5.093620000E-03 1.833300000E+00 0.000000000E+00 2.434025310E+02
5.099680000E-03 1.832000000E+00 0.000000000E+00 2.431132934E+02
5.105740000E-03 1.830600000E+00 0.000000000E+00 2.428247423E+02
5.117860000E-03 1.827900000E+00 0.000000000E+00 2.422496903E+02
5.129980000E-03 1.825200000E+00 0.000000000E+00 2.416773555E+02
5.142100000E-03 1.822500000E+00 0.000000000E+00 2.411077186E+02
5.154220000E-03 1.819700000E+00 0.000000000E+00 2.405407608E+02
5.166340000E-03 1.817000000E+00 0.000000000E+00 2.399764630E+02
5.171110000E-03 1.816000000E+00 0.000000000E+00 2.397551009E+02
5.180580000E-03 1.813800000E+00 0.000000000E+00 2.393168333E+02
5.199230000E-03 1.809700000E+00 0.000000000E+00 2.384583871E+02
5.217290000E-03 1.805600000E+00 0.000000000E+00 2.376329474E+02
5.234790000E-03 1.801700000E+00 0.000000000E+00 2.368385360E+02
5.268700000E-03 1.794100000E+00 0.000000000E+00 2.353142141E+02
5.300490000E-03 1.787000000E+00 0.000000000E+00 2.339029033E+02
5.330290000E-03 1.780300000E+00 0.000000000E+00 2.325952247E+02
5.386170000E-03 1.767800000E+00 0.000000000E+00 2.301821146E+02
5.435060000E-03 1.756800000E+00 0.000000000E+00 2.281115572E+02
5.520620000E-03 1.737700000E+00 0.000000000E+00 2.245762251E+02
5.584790000E-03 1.723300000E+00 0.000000000E+00 2.219958136E+02
5.681050000E-03 1.701700000E+00 0.000000000E+00 2.182343053E+02
5.777310000E-03 1.680200000E+00 0.000000000E+00 2.145981434E+02
5.791530000E-03 1.677000000E+00 0.000000000E+00 2.140712385E+02
5.805750000E-03 1.673800000E+00 0.000000000E+00 2.135469147E+02
5.819970000E-03 1.670600000E+00 0.000000000E+00 2.130251531E+02
5.834190000E-03 1.667400000E+00 0.000000000E+00 2.125059348E+02
5.848410000E-03 1.664200000E+00 0.000000000E+00 2.119892415E+02
5.862630000E-03 1.661000000E+00 0.000000000E+00 2.114750547E+02
5.876850000E-03 1.657900000E+00 0.000000000E+00 2.109633562E+02
5.891070000E-03 1.654700000E+00 0.000000000E+00 2.104541280E+02
5.905290000E-03 1.651500000E+00 0.000000000E+00 2.099473523E+02
5.919510000E-03 1.648300000E+00 0.000000000E+00 2.094430113E+02
5.933730000E-03 1.645100000E+00 0.000000000E+00 2.089410876E+02
5.947950000E-03 1.641900000E+00 0.000000000E+00 2.084415639E+02
5.962170000E-03 1.638700000E+00 0.000000000E+00 2.079444229E+02
5.990610000E-03 1.632200000E+00 0.000000000E+00 2.069572214E+02
6.004830000E-03 1.627900000E+00 0.000000000E+00 2.064671273E+02
6.019050000E-03 1.622200000E+00 0.000000000E+00 2.059793489E+02
6.033270000E-03 1.616500000E+00 0.000000000E+00 2.054938698E+02
6.047490000E-03 1.610700000E+00 0.000000000E+00 2.050106738E+02
6.061710000E-03 1.605000000E+00 0.000000000E+00 2.045297449E+02
6.183960000E-03 1.555900000E+00 0.000000000E+00 2.004864197E+02
6.275650000E-03 1.519000000E+00 0.000000000E+00 1.975572251E+02
6.355500000E-03 1.486900000E+00 0.000000000E+00 1.950751318E+02
6.422600000E-03 1.459900000E+00 0.000000000E+00 1.930370878E+02
6.454630000E-03 1.447000000E+00 0.000000000E+00 1.920791742E+02
6.502670000E-03 1.427700000E+00 0.000000000E+00 1.906601442E+02
6.526690000E-03 1.418000000E+00 0.000000000E+00 1.899584629E+02
6.550710000E-03 1.408300000E+00 0.000000000E+00 1.892619273E+02
6.566840000E-03 1.401900000E+00 0.000000000E+00 1.887970470E+02
6.582960000E-03 1.395400000E+00 0.000000000E+00 1.883347309E+02
6.586600000E-03 1.393900000E+00 0.000000000E+00 1.882306501E+02
6.602810000E-03 1.387400000E+00 0.000000000E+00 1.877685410E+02
6.619020000E-03 1.380900000E+00 0.000000000E+00 1.873086952E+02
6.635240000E-03 1.374300000E+00 0.000000000E+00 1.868508147E+02
6.651450000E-03 1.367800000E+00 0.000000000E+00 1.863954476E+02
6.667660000E-03 1.361300000E+00 0.000000000E+00 1.859422946E+02
6.701830000E-03 1.347600000E+00 0.000000000E+00 1.849942478E+02
6.718330000E-03 1.340900000E+00 0.000000000E+00 1.845399080E+02
6.751320000E-03 1.327700000E+00 0.000000000E+00 1.836381626E+02
6.767820000E-03 1.321000000E+00 0.000000000E+00 1.831904513E+02
6.791270000E-03 1.311600000E+00 0.000000000E+00 1.825579015E+02
6.812530000E-03 1.303000000E+00 0.000000000E+00 1.819881894E+02
6.823170000E-03 1.298800000E+00 0.000000000E+00 1.817043984E+02
6.833800000E-03 1.294500000E+00 0.000000000E+00 1.814217566E+02
6.850290000E-03 1.287800000E+00 0.000000000E+00 1.809850386E+02
6.866790000E-03 1.281200000E+00 0.000000000E+00 1.805501552E+02
6.883290000E-03 1.274600000E+00 0.000000000E+00 1.801173567E+02
6.887410000E-03 1.272900000E+00 0.000000000E+00 1.800096117E+02
6.899780000E-03 1.267900000E+00 0.000000000E+00 1.796868886E+02
6.905970000E-03 1.265500000E+00 0.000000000E+00 1.795258305E+02
6.911380000E-03 1.263300000E+00 0.000000000E+00 1.793853037E+02
6.920850000E-03 1.259500000E+00 0.000000000E+00 1.791398455E+02
6.927960000E-03 1.256600000E+00 0.000000000E+00 1.789559986E+02
6.938610000E-03 1.252300000E+00 0.000000000E+00 1.786813209E+02
6.943940000E-03 1.250200000E+00 0.000000000E+00 1.785441694E+02
6.949270000E-03 1.248000000E+00 0.000000000E+00 1.784072284E+02
6.957520000E-03 1.244700000E+00 0.000000000E+00 1.781956789E+02
6.965760000E-03 1.241400000E+00 0.000000000E+00 1.779848861E+02
6.976000000E-03 1.237300000E+00 0.000000000E+00 1.777236239E+02
6.978310000E-03 1.236300000E+00 0.000000000E+00 1.776647928E+02
6.982490000E-03 1.234400000E+00 0.000000000E+00 1.775584355E+02
6.991090000E-03 1.230500000E+00 0.000000000E+00 1.773400142E+02
6.999680000E-03 1.226700000E+00 0.000000000E+00 1.771223827E+02
7.016870000E-03 1.219000000E+00 0.000000000E+00 1.766884665E+02
7.034050000E-03 1.211300000E+00 0.000000000E+00 1.762569217E+02
7.051240000E-03 1.203700000E+00 0.000000000E+00 1.758272304E+02
7.068430000E-03 1.196000000E+00 0.000000000E+00 1.753996291E+02
7.077020000E-03 1.192100000E+00 0.000000000E+00 1.751867311E+02
7.085610000E-03 1.188300000E+00 0.000000000E+00 1.749743494E+02
7.094210000E-03 1.184500000E+00 0.000000000E+00 1.747622357E+02
7.102800000E-03 1.180600000E+00 0.000000000E+00 1.745508813E+02
7.115690000E-03 1.174900000E+00 0.000000000E+00 1.742346842E+02
7.128580000E-03 1.169100000E+00 0.000000000E+00 1.739196306E+02
7.135030000E-03 1.166200000E+00 0.000000000E+00 1.737624088E+02
7.139320000E-03 1.164300000E+00 0.000000000E+00 1.736579954E+02
7.146840000E-03 1.160900000E+00 0.000000000E+00 1.734752702E+02
7.148720000E-03 1.160100000E+00 0.000000000E+00 1.734296489E+02
7.150130000E-03 1.159500000E+00 0.000000000E+00 1.733954488E+02
7.151190000E-03 1.159000000E+00 0.000000000E+00 1.733697469E+02
7.152770000E-03 1.158300000E+00 0.000000000E+00 1.733314506E+02
7.153570000E-03 1.157900000E+00 0.000000000E+00 1.733120666E+02
7.154360000E-03 1.157600000E+00 0.000000000E+00 1.732929291E+02
7.155430000E-03 1.157100000E+00 0.000000000E+00 1.732670154E+02
7.171550000E-03 1.149900000E+00 0.000000000E+00 1.728775509E+02
7.175840000E-03 1.148000000E+00 0.000000000E+00 1.727741979E+02
7.188730000E-03 1.142200000E+00 0.000000000E+00 1.724643991E+02
7.197330000E-03 1.138400000E+00 0.000000000E+00 1.722583236E+02
7.205920000E-03 1.134500000E+00 0.000000000E+00 1.720529787E+02
7.214510000E-03 1.130700000E+00 0.000000000E+00 1.718481227E+02
7.223110000E-03 1.126900000E+00 0.000000000E+00 1.716435164E+02
7.231700000E-03 1.123000000E+00 0.000000000E+00 1.714396338E+02
7.240290000E-03 1.119200000E+00 0.000000000E+00 1.712362350E+02
7.257480000E-03 1.111500000E+00 0.000000000E+00 1.708306465E+02
7.274670000E-03 1.103800000E+00 0.000000000E+00 1.704269747E+02
7.291940000E-03 1.096100000E+00 0.000000000E+00 1.700233408E+02
7.321380000E-03 1.082900000E+00 0.000000000E+00 1.693396600E+02
7.326230000E-03 1.080800000E+00 0.000000000E+00 1.692275563E+02
7.327750000E-03 1.080100000E+00 0.000000000E+00 1.691924533E+02
7.336700000E-03 1.076100000E+00 0.000000000E+00 1.689860564E+02
7.345660000E-03 1.072100000E+00 0.000000000E+00 1.687799326E+02
7.357420000E-03 1.066800000E+00 0.000000000E+00 1.685101571E+02
7.375450000E-03 1.058800000E+00 0.000000000E+00 1.680982177E+02
7.393470000E-03 1.050700000E+00 0.000000000E+00 1.676885143E+02
7.411490000E-03 1.042700000E+00 0.000000000E+00 1.672808032E+02
7.432280000E-03 1.033400000E+00 0.000000000E+00 1.668128757E+02
7.453080000E-03 1.024100000E+00 0.000000000E+00 1.663473356E+02
7.472000000E-03 1.015600000E+00 0.000000000E+00 1.659261242E+02
7.483570000E-03 1.009700000E+00 0.000000000E+00 1.656695935E+02
7.501590000E-03 1.000600000E+00 0.000000000E+00 1.652716291E+02
7.519610000E-03 9.914000000E-01 0.000000000E+00 1.648755720E+02
7.537630000E-03 9.822000000E-01 0.000000000E+00 1.644814086E+02
7.558020000E-03 9.718000000E-01 0.000000000E+00 1.640376712E+02
7.578410000E-03 9.614000000E-01 0.000000000E+00 1.635963217E+02
7.591690000E-03 9.547000000E-01 0.000000000E+00 1.633101457E+02
7.609710000E-03 9.455000000E-01 0.000000000E+00 1.629234228E+02
7.628280000E-03 9.360000000E-01 0.000000000E+00 1.625268081E+02
7.645760000E-03 9.271000000E-01 0.000000000E+00 1.621552338E+02
7.665740000E-03 9.169000000E-01 0.000000000E+00 1.617325920E+02
7.681800000E-03 9.088000000E-01 0.000000000E+00 1.613944648E+02
7.684470000E-03 9.074000000E-01 0.000000000E+00 1.613383877E+02
7.703200000E-03 8.978000000E-01 0.000000000E+00 1.609461003E+02
7.721930000E-03 8.881000000E-01 0.000000000E+00 1.605557160E+02
7.740660000E-03 8.764000000E-01 0.000000000E+00 1.601672209E+02
7.759390000E-03 8.647000000E-01 0.000000000E+00 1.597806013E+02
7.778120000E-03 8.530000000E-01 0.000000000E+00 1.593958437E+02
7.796850000E-03 8.413000000E-01 0.000000000E+00 1.590129347E+02
7.815580000E-03 8.296000000E-01 0.000000000E+00 1.586318610E+02
7.835860000E-03 8.169000000E-01 0.000000000E+00 1.582213056E+02
7.867520000E-03 7.971000000E-01 0.000000000E+00 1.575846010E+02
7.893720000E-03 7.808000000E-01 0.000000000E+00 1.570615629E+02
7.913010000E-03 7.687000000E-01 0.000000000E+00 1.566786848E+02
