# Data retrieved from https://www-nds.iaea.org/epdl97/za1to100.htm 03/01/2021
# Element, Be  (Z = 4) 
# Atomic weight, g mol-1 = 9.0122 
# Nominal density, g cm-3 =  1.84800E+0 
# Relativistic correction estimate f_rel(5CL)*,  e atom-1 =  0 
# Nuclear Thomson correction f_NT*, e atom-1 =  0 
#    E [keV]      f1 [e atom-1]      f2 [e atom-1]    Wavelength [nm] 
1.000000000E-03 1.574870000E+00 0.000000000E+00 1.239800000E+03
1.125000000E-03 1.574240000E+00 0.000000000E+00 1.102044444E+03
1.265630000E-03 1.573520000E+00 0.000000000E+00 9.795911917E+02
1.423830000E-03 1.572720000E+00 0.000000000E+00 8.707500193E+02
1.601810000E-03 1.571810000E+00 0.000000000E+00 7.739994132E+02
1.802030000E-03 1.570790000E+00 0.000000000E+00 6.880018646E+02
1.907510000E-03 1.570250000E+00 0.000000000E+00 6.499572741E+02
2.006390000E-03 1.569710000E+00 0.000000000E+00 6.179257273E+02
2.191800000E-03 1.567620000E+00 0.000000000E+00 5.656538005E+02
2.354030000E-03 1.565780000E+00 0.000000000E+00 5.266712829E+02
2.495980000E-03 1.564180000E+00 0.000000000E+00 4.967187237E+02
2.620190000E-03 1.562780000E+00 0.000000000E+00 4.731717929E+02
2.728870000E-03 1.561550000E+00 0.000000000E+00 4.543272490E+02
2.823970000E-03 1.560470000E+00 0.000000000E+00 4.390273268E+02
2.907180000E-03 1.559530000E+00 0.000000000E+00 4.264613818E+02
2.979990000E-03 1.558710000E+00 0.000000000E+00 4.160416646E+02
3.043690000E-03 1.557990000E+00 0.000000000E+00 4.073345183E+02
3.099440000E-03 1.557360000E+00 0.000000000E+00 4.000077433E+02
3.148210000E-03 1.556810000E+00 0.000000000E+00 3.938110863E+02
3.190890000E-03 1.556330000E+00 0.000000000E+00 3.885436352E+02
3.228240000E-03 1.555910000E+00 0.000000000E+00 3.840482740E+02
3.260910000E-03 1.555540000E+00 0.000000000E+00 3.802006188E+02
3.289510000E-03 1.555210000E+00 0.000000000E+00 3.768950391E+02
3.314520000E-03 1.554930000E+00 0.000000000E+00 3.740511447E+02
3.336410000E-03 1.554680000E+00 0.000000000E+00 3.715970160E+02
3.374720000E-03 1.554250000E+00 0.000000000E+00 3.673786270E+02
3.403450000E-03 1.553930000E+00 0.000000000E+00 3.642774244E+02
3.425000000E-03 1.553680000E+00 0.000000000E+00 3.619854015E+02
3.441160000E-03 1.553500000E+00 0.000000000E+00 3.602854851E+02
3.453280000E-03 1.553360000E+00 0.000000000E+00 3.590209887E+02
3.462370000E-03 1.553260000E+00 0.000000000E+00 3.580784260E+02
3.476010000E-03 1.553110000E+00 0.000000000E+00 3.566733122E+02
3.482830000E-03 1.553030000E+00 0.000000000E+00 3.559748825E+02
3.489650000E-03 1.552950000E+00 0.000000000E+00 3.552791827E+02
3.490510000E-03 1.552940000E+00 0.000000000E+00 3.551916482E+02
3.506830000E-03 1.552760000E+00 0.000000000E+00 3.535386660E+02
3.507690000E-03 1.552750000E+00 0.000000000E+00 3.534519869E+02
3.516280000E-03 1.552650000E+00 0.000000000E+00 3.525885311E+02
3.524870000E-03 1.552550000E+00 0.000000000E+00 3.517292836E+02
3.533460000E-03 1.552460000E+00 0.000000000E+00 3.508742139E+02
3.539690000E-03 1.552390000E+00 0.000000000E+00 3.502566609E+02
3.544360000E-03 1.552330000E+00 0.000000000E+00 3.497951675E+02
3.551360000E-03 1.552250000E+00 0.000000000E+00 3.491056947E+02
3.554860000E-03 1.552210000E+00 0.000000000E+00 3.487619766E+02
3.558360000E-03 1.552180000E+00 0.000000000E+00 3.484189346E+02
3.565460000E-03 1.552090000E+00 0.000000000E+00 3.477251182E+02
3.566650000E-03 1.552080000E+00 0.000000000E+00 3.476091010E+02
3.569980000E-03 1.552040000E+00 0.000000000E+00 3.472848587E+02
3.573200000E-03 1.552010000E+00 0.000000000E+00 3.469719019E+02
3.574810000E-03 1.551990000E+00 0.000000000E+00 3.468156350E+02
3.575610000E-03 1.551980000E+00 0.000000000E+00 3.467380391E+02
3.575820000E-03 1.551980000E+00 0.000000000E+00 3.467176759E+02
3.575970000E-03 1.551980000E+00 0.000000000E+00 3.467031323E+02
3.576080000E-03 1.551970000E+00 0.000000000E+00 3.466924677E+02
3.576120000E-03 1.551970000E+00 0.000000000E+00 3.466885899E+02
3.576200000E-03 1.551970000E+00 0.000000000E+00 3.466808344E+02
3.576310000E-03 1.551970000E+00 0.000000000E+00 3.466701712E+02
3.576360000E-03 1.551970000E+00 0.000000000E+00 3.466653245E+02
3.576490000E-03 1.551970000E+00 0.000000000E+00 3.466527238E+02
3.576750000E-03 1.551970000E+00 0.000000000E+00 3.466275250E+02
3.585010000E-03 1.551870000E+00 0.000000000E+00 3.458288819E+02
3.587160000E-03 1.551850000E+00 0.000000000E+00 3.456216060E+02
3.593600000E-03 1.551780000E+00 0.000000000E+00 3.450022262E+02
3.597900000E-03 1.551730000E+00 0.000000000E+00 3.445898997E+02
3.602190000E-03 1.551680000E+00 0.000000000E+00 3.441795130E+02
3.606270000E-03 1.551630000E+00 0.000000000E+00 3.437901211E+02
3.612380000E-03 1.551560000E+00 0.000000000E+00 3.432086325E+02
3.618490000E-03 1.551500000E+00 0.000000000E+00 3.426291077E+02
3.627970000E-03 1.551390000E+00 0.000000000E+00 3.417338071E+02
3.636560000E-03 1.551290000E+00 0.000000000E+00 3.409265900E+02
3.645150000E-03 1.551190000E+00 0.000000000E+00 3.401231774E+02
3.653740000E-03 1.551100000E+00 0.000000000E+00 3.393235425E+02
3.661430000E-03 1.551010000E+00 0.000000000E+00 3.386108706E+02
3.662330000E-03 1.551000000E+00 0.000000000E+00 3.385276586E+02
3.665960000E-03 1.550960000E+00 0.000000000E+00 3.381924516E+02
3.673190000E-03 1.550880000E+00 0.000000000E+00 3.375267819E+02
3.687590000E-03 1.550720000E+00 0.000000000E+00 3.362087434E+02
3.701880000E-03 1.550550000E+00 0.000000000E+00 3.349109101E+02
3.716060000E-03 1.550390000E+00 0.000000000E+00 3.336329338E+02
3.744200000E-03 1.550080000E+00 0.000000000E+00 3.311254741E+02
3.771900000E-03 1.549760000E+00 0.000000000E+00 3.286937618E+02
3.799160000E-03 1.549450000E+00 0.000000000E+00 3.263352952E+02
3.826000000E-03 1.549150000E+00 0.000000000E+00 3.240460010E+02
3.878840000E-03 1.548550000E+00 0.000000000E+00 3.196316424E+02
3.930030000E-03 1.547980000E+00 0.000000000E+00 3.154683298E+02
3.979620000E-03 1.547420000E+00 0.000000000E+00 3.115372825E+02
4.075700000E-03 1.545320000E+00 0.000000000E+00 3.041931447E+02
4.165770000E-03 1.543100000E+00 0.000000000E+00 2.976160470E+02
4.250220000E-03 1.541020000E+00 0.000000000E+00 2.917025472E+02
4.408550000E-03 1.537120000E+00 0.000000000E+00 2.812262535E+02
4.547100000E-03 1.533710000E+00 0.000000000E+00 2.726572981E+02
4.789540000E-03 1.527740000E+00 0.000000000E+00 2.588557565E+02
4.971380000E-03 1.523270000E+00 0.000000000E+00 2.493874940E+02
5.244130000E-03 1.516550000E+00 0.000000000E+00 2.364167174E+02
5.516890000E-03 1.509830000E+00 0.000000000E+00 2.247280624E+02
5.530470000E-03 1.509500000E+00 0.000000000E+00 2.241762454E+02
5.544050000E-03 1.509160000E+00 0.000000000E+00 2.236271318E+02
5.557630000E-03 1.508830000E+00 0.000000000E+00 2.230807017E+02
5.571210000E-03 1.508500000E+00 0.000000000E+00 2.225369354E+02
5.584780000E-03 1.508160000E+00 0.000000000E+00 2.219962111E+02
5.598360000E-03 1.507830000E+00 0.000000000E+00 2.214577126E+02
5.611940000E-03 1.507490000E+00 0.000000000E+00 2.209218203E+02
5.625520000E-03 1.507160000E+00 0.000000000E+00 2.203885152E+02
5.639100000E-03 1.506820000E+00 0.000000000E+00 2.198577787E+02
5.652680000E-03 1.506490000E+00 0.000000000E+00 2.193295923E+02
5.666260000E-03 1.506150000E+00 0.000000000E+00 2.188039377E+02
5.679840000E-03 1.505820000E+00 0.000000000E+00 2.182807966E+02
5.693420000E-03 1.505490000E+00 0.000000000E+00 2.177601512E+02
5.720580000E-03 1.504820000E+00 0.000000000E+00 2.167262760E+02
5.734150000E-03 1.504480000E+00 0.000000000E+00 2.162133882E+02
5.747730000E-03 1.504150000E+00 0.000000000E+00 2.157025469E+02
5.761310000E-03 1.503810000E+00 0.000000000E+00 2.151941138E+02
5.774890000E-03 1.503480000E+00 0.000000000E+00 2.146880720E+02
5.788470000E-03 1.503150000E+00 0.000000000E+00 2.141844045E+02
6.188140000E-03 1.487560000E+00 0.000000000E+00 2.003509940E+02
6.188360000E-03 1.487550000E+00 0.000000000E+00 2.003438714E+02
6.218830000E-03 1.486130000E+00 0.000000000E+00 1.993622595E+02
6.234060000E-03 1.485420000E+00 0.000000000E+00 1.988752113E+02
6.249290000E-03 1.484710000E+00 0.000000000E+00 1.983905372E+02
6.264520000E-03 1.484010000E+00 0.000000000E+00 1.979082196E+02
6.279750000E-03 1.483300000E+00 0.000000000E+00 1.974282416E+02
6.294980000E-03 1.482590000E+00 0.000000000E+00 1.969505860E+02
6.310220000E-03 1.481880000E+00 0.000000000E+00 1.964749248E+02
6.325450000E-03 1.481170000E+00 0.000000000E+00 1.960018655E+02
6.340680000E-03 1.480460000E+00 0.000000000E+00 1.955310787E+02
6.355910000E-03 1.479750000E+00 0.000000000E+00 1.950625481E+02
6.371140000E-03 1.479040000E+00 0.000000000E+00 1.945962575E+02
6.386380000E-03 1.478330000E+00 0.000000000E+00 1.941318869E+02
6.416840000E-03 1.476910000E+00 0.000000000E+00 1.932103652E+02
6.432070000E-03 1.476200000E+00 0.000000000E+00 1.927528774E+02
6.447300000E-03 1.475490000E+00 0.000000000E+00 1.922975509E+02
6.462530000E-03 1.474790000E+00 0.000000000E+00 1.918443705E+02
6.477770000E-03 1.474080000E+00 0.000000000E+00 1.913930257E+02
6.492760000E-03 1.473380000E+00 0.000000000E+00 1.909511517E+02
6.493000000E-03 1.473370000E+00 0.000000000E+00 1.909440936E+02
6.505670000E-03 1.472780000E+00 0.000000000E+00 1.905722239E+02
6.521680000E-03 1.472030000E+00 0.000000000E+00 1.901043903E+02
6.537700000E-03 1.471290000E+00 0.000000000E+00 1.896385579E+02
6.553710000E-03 1.470540000E+00 0.000000000E+00 1.891752916E+02
6.569720000E-03 1.469790000E+00 0.000000000E+00 1.887142831E+02
6.585740000E-03 1.469050000E+00 0.000000000E+00 1.882552302E+02
6.601750000E-03 1.468300000E+00 0.000000000E+00 1.877986897E+02
6.617760000E-03 1.467560000E+00 0.000000000E+00 1.873443582E+02
6.633770000E-03 1.466810000E+00 0.000000000E+00 1.868922197E+02
6.649790000E-03 1.466070000E+00 0.000000000E+00 1.864419779E+02
6.665800000E-03 1.465320000E+00 0.000000000E+00 1.859941792E+02
6.681810000E-03 1.464580000E+00 0.000000000E+00 1.855485265E+02
6.697830000E-03 1.463830000E+00 0.000000000E+00 1.851047279E+02
6.713840000E-03 1.463080000E+00 0.000000000E+00 1.846633223E+02
6.745860000E-03 1.461590000E+00 0.000000000E+00 1.837867966E+02
6.761880000E-03 1.460850000E+00 0.000000000E+00 1.833513757E+02
6.777890000E-03 1.460100000E+00 0.000000000E+00 1.829182828E+02
6.793900000E-03 1.459360000E+00 0.000000000E+00 1.824872312E+02
6.809920000E-03 1.458610000E+00 0.000000000E+00 1.820579390E+02
6.825930000E-03 1.457860000E+00 0.000000000E+00 1.816309279E+02
7.024840000E-03 1.444700000E+00 0.000000000E+00 1.764880054E+02
7.024900000E-03 1.444700000E+00 0.000000000E+00 1.764864980E+02
7.042190000E-03 1.443400000E+00 0.000000000E+00 1.760531880E+02
7.059480000E-03 1.442090000E+00 0.000000000E+00 1.756220005E+02
7.076770000E-03 1.440790000E+00 0.000000000E+00 1.751929199E+02
7.094060000E-03 1.439480000E+00 0.000000000E+00 1.747659309E+02
7.111360000E-03 1.438180000E+00 0.000000000E+00 1.743407731E+02
7.154930000E-03 1.434900000E+00 0.000000000E+00 1.732791236E+02
7.163230000E-03 1.434270000E+00 0.000000000E+00 1.730783459E+02
7.180520000E-03 1.432970000E+00 0.000000000E+00 1.726615900E+02
7.197810000E-03 1.431660000E+00 0.000000000E+00 1.722468362E+02
7.215100000E-03 1.430360000E+00 0.000000000E+00 1.718340702E+02
7.232390000E-03 1.429060000E+00 0.000000000E+00 1.714232778E+02
7.284260000E-03 1.425140000E+00 0.000000000E+00 1.702026012E+02
7.301560000E-03 1.423840000E+00 0.000000000E+00 1.697993306E+02
7.318850000E-03 1.422540000E+00 0.000000000E+00 1.693981978E+02
7.336140000E-03 1.421230000E+00 0.000000000E+00 1.689989559E+02
7.363990000E-03 1.419130000E+00 0.000000000E+00 1.683598158E+02
7.370660000E-03 1.418630000E+00 0.000000000E+00 1.682074604E+02
7.370720000E-03 1.418630000E+00 0.000000000E+00 1.682060911E+02
7.388670000E-03 1.416220000E+00 0.000000000E+00 1.677974520E+02
7.388710000E-03 1.416220000E+00 0.000000000E+00 1.677965436E+02
7.425080000E-03 1.411280000E+00 0.000000000E+00 1.669746319E+02
7.443270000E-03 1.408810000E+00 0.000000000E+00 1.665665762E+02
7.461450000E-03 1.406350000E+00 0.000000000E+00 1.661607328E+02
7.479640000E-03 1.403880000E+00 0.000000000E+00 1.657566407E+02
7.534200000E-03 1.396480000E+00 0.000000000E+00 1.645562900E+02
7.552380000E-03 1.394010000E+00 0.000000000E+00 1.641601720E+02
7.570570000E-03 1.391540000E+00 0.000000000E+00 1.637657402E+02
7.588760000E-03 1.389070000E+00 0.000000000E+00 1.633731993E+02
7.606940000E-03 1.386610000E+00 0.000000000E+00 1.629827500E+02
7.643320000E-03 1.381670000E+00 0.000000000E+00 1.622069991E+02
7.661500000E-03 1.379200000E+00 0.000000000E+00 1.618220975E+02
7.679690000E-03 1.376740000E+00 0.000000000E+00 1.614388081E+02
7.690900000E-03 1.375210000E+00 0.000000000E+00 1.612035002E+02
7.697870000E-03 1.374270000E+00 0.000000000E+00 1.610575393E+02
7.716060000E-03 1.371800000E+00 0.000000000E+00 1.606778589E+02
7.734250000E-03 1.369330000E+00 0.000000000E+00 1.602999644E+02
7.752430000E-03 1.366870000E+00 0.000000000E+00 1.599240496E+02
7.766520000E-03 1.364950000E+00 0.000000000E+00 1.596339158E+02
7.785450000E-03 1.362390000E+00 0.000000000E+00 1.592457726E+02
7.892960000E-03 1.344170000E+00 1.432010000E-06 1.570766861E+02
8.040850000E-03 1.291600000E+00 3.286420000E-03 1.541876792E+02
8.180000000E-03 1.220070000E+00 8.125300000E-02 1.515647922E+02
8.709640000E-03 1.325720000E+00 2.002270000E-01 1.423480190E+02
9.600000000E-03 1.369960000E+00 2.610070000E-01 1.291458333E+02
1.060000000E-02 1.411510000E+00 3.159530000E-01 1.169622642E+02
1.180000000E-02 1.462100000E+00 3.655710000E-01 1.050677966E+02
1.350000000E-02 1.531840000E+00 4.123890000E-01 9.183703704E+01
1.610000000E-02 1.626730000E+00 4.495370000E-01 7.700621118E+01
1.923540000E-02 1.716910000E+00 4.635330000E-01 6.445407946E+01
2.540970000E-02 1.840100000E+00 4.525580000E-01 4.879239031E+01
3.785520000E-02 1.954130000E+00 3.931410000E-01 3.275111477E+01
5.401320000E-02 1.959300000E+00 3.142020000E-01 2.295364837E+01
6.982260000E-02 1.848010000E+00 2.499230000E-01 1.775642843E+01
8.024600000E-02 1.700880000E+00 2.156240000E-01 1.544999128E+01
8.794110000E-02 1.540220000E+00 1.942100000E-01 1.409807246E+01
9.371240000E-02 1.374290000E+00 1.801670000E-01 1.322983938E+01
9.587660000E-02 1.295910000E+00 1.752130000E-01 1.293120532E+01
9.777030000E-02 1.216810000E+00 1.710120000E-01 1.268074252E+01
9.942730000E-02 1.147490000E+00 1.675230000E-01 1.246941232E+01
9.980320000E-02 1.131760000E+00 1.667310000E-01 1.242244738E+01
1.008770000E-01 1.072890000E+00 1.645300000E-01 1.229021482E+01
1.021460000E-01 1.003300000E+00 1.620240000E-01 1.213752864E+01
1.032590000E-01 9.422400000E-01 1.598390000E-01 1.200670160E+01
1.042270000E-01 8.745700000E-01 1.580320000E-01 1.189519031E+01
1.054490000E-01 7.892000000E-01 1.557510000E-01 1.175734241E+01
1.062770000E-01 7.241400000E-01 1.542040000E-01 1.166574141E+01
1.068470000E-01 6.747800000E-01 1.531410000E-01 1.160350782E+01
1.071080000E-01 6.521300000E-01 1.526670000E-01 1.157523248E+01
1.078120000E-01 5.907300000E-01 1.514060000E-01 1.149964753E+01
1.082140000E-01 5.486300000E-01 1.506860000E-01 1.145692794E+01
1.085660000E-01 5.118000000E-01 1.500560000E-01 1.141978152E+01
1.088730000E-01 4.795700000E-01 1.495050000E-01 1.138758002E+01
1.091420000E-01 4.513600000E-01 1.490230000E-01 1.135951329E+01
1.096130000E-01 3.913900000E-01 1.481790000E-01 1.131070220E+01
1.099670000E-01 3.439800000E-01 1.475730000E-01 1.127429138E+01
1.102310000E-01 3.084100000E-01 1.471250000E-01 1.124728978E+01
1.104300000E-01 2.817400000E-01 1.467900000E-01 1.122702164E+01
1.107280000E-01 2.417300000E-01 1.462870000E-01 1.119680659E+01
1.108770000E-01 2.217200000E-01 1.460350000E-01 1.118175997E+01
1.109520000E-01 2.117200000E-01 1.459090000E-01 1.117420146E+01
1.110260000E-01 2.017200000E-01 1.457830000E-01 1.116675373E+01
1.111630000E-01 1.833800000E-01 1.455530000E-01 1.115299155E+01
1.115730000E-01 1.228900000E-01 1.448610000E-01 1.111200739E+01
1.118460000E-01 7.507000000E-02 1.443990000E-01 1.108488457E+01
1.121190000E-01 2.725000000E-02 1.439380000E-01 1.105789384E+01
1.123930000E-01 -2.057000000E-02 1.434760000E-01 1.103093609E+01
1.125290000E-01 -4.448000000E-02 1.432460000E-01 1.101760435E+01
1.126660000E-01 -7.433000000E-02 1.430150000E-01 1.100420713E+01
1.128600000E-01 -1.168400000E-01 1.426880000E-01 1.098529151E+01
1.130530000E-01 -1.593500000E-01 1.423760000E-01 1.096653782E+01
1.131330000E-01 -1.768100000E-01 1.422500000E-01 1.095878303E+01
1.132120000E-01 -1.942700000E-01 1.421230000E-01 1.095113592E+01
1.133490000E-01 -2.242600000E-01 1.419060000E-01 1.093789976E+01
1.134170000E-01 -2.392600000E-01 1.417980000E-01 1.093134186E+01
1.134860000E-01 -2.542500000E-01 1.416890000E-01 1.092469556E+01
1.135200000E-01 -2.617500000E-01 1.416350000E-01 1.092142354E+01
1.136990000E-01 -3.034900000E-01 1.413520000E-01 1.090422959E+01
1.137290000E-01 -3.111200000E-01 1.413050000E-01 1.090135322E+01
1.137370000E-01 -3.130400000E-01 1.412930000E-01 1.090058644E+01
1.137800000E-01 -3.243300000E-01 1.412250000E-01 1.089646687E+01
1.140110000E-01 -3.863700000E-01 1.408670000E-01 1.087438931E+01
1.141120000E-01 -4.147500000E-01 1.407160000E-01 1.086476444E+01
1.143230000E-01 -4.768700000E-01 1.404220000E-01 1.084471191E+01
1.144780000E-01 -5.253000000E-01 1.402420000E-01 1.083002848E+01
1.146990000E-01 -5.993200000E-01 1.401030000E-01 1.080916137E+01
1.148120000E-01 -6.394500000E-01 1.401310000E-01 1.079852280E+01
1.149250000E-01 -6.814000000E-01 1.402710000E-01 1.078790516E+01
1.151650000E-01 -7.772200000E-01 1.412110000E-01 1.076542352E+01
1.154480000E-01 -9.048500000E-01 1.445800000E-01 1.073903402E+01
1.156980000E-01 -1.034320000E+00 1.518490000E-01 1.071582914E+01
1.159930000E-01 -1.210810000E+00 1.707070000E-01 1.068857603E+01
1.161630000E-01 -1.326020000E+00 1.900580000E-01 1.067293372E+01
1.165260000E-01 -1.607590000E+00 2.663590000E-01 1.063968556E+01
1.166760000E-01 -1.737210000E+00 3.177720000E-01 1.062600706E+01
1.168590000E-01 -1.904100000E+00 4.015950000E-01 1.060936684E+01
1.172420000E-01 -2.261820000E+00 6.677570000E-01 1.057470872E+01
1.175590000E-01 -2.532750000E+00 9.944160000E-01 1.054619383E+01
1.178520000E-01 -2.725640000E+00 1.379310000E+00 1.051997420E+01
1.181040000E-01 -2.821480000E+00 1.757090000E+00 1.049752760E+01
1.183330000E-01 -2.813320000E+00 2.122460000E+00 1.047721261E+01
1.185220000E-01 -2.806590000E+00 2.423450000E+00 1.046050522E+01
1.187300000E-01 -2.718860000E+00 2.740590000E+00 1.044217974E+01
1.188140000E-01 -2.665090000E+00 2.860540000E+00 1.043479725E+01
1.191600000E-01 -2.394670000E+00 3.305270000E+00 1.040449815E+01
1.192860000E-01 -2.273870000E+00 3.439820000E+00 1.039350804E+01
1.197000000E-01 -1.844120000E+00 3.769000000E+00 1.035756057E+01
1.210870000E-01 -6.507400000E-01 4.025800000E+00 1.023891912E+01
1.216190000E-01 -3.545700000E-01 3.997480000E+00 1.019413085E+01
1.219630000E-01 -2.102500000E-01 3.973920000E+00 1.016537802E+01
1.224590000E-01 -2.140000000E-03 3.939940000E+00 1.012420484E+01
1.233830000E-01 2.881300000E-01 3.876360000E+00 1.004838592E+01
1.246750000E-01 6.069700000E-01 3.800150000E+00 9.944255063E+00
1.258690000E-01 8.323500000E-01 3.740270000E+00 9.849923333E+00
1.285000000E-01 1.231580000E+00 3.626070000E+00 9.648249027E+00
1.373470000E-01 2.028430000E+00 3.376480000E+00 9.026771608E+00
1.509450000E-01 2.758470000E+00 3.106590000E+00 8.213587731E+00
1.548820000E-01 2.920530000E+00 3.027300000E+00 8.004803657E+00
1.635390000E-01 3.218464000E+00 2.855280000E+00 7.581066290E+00
1.698240000E-01 3.401249000E+00 2.728490000E+00 7.300499340E+00
1.765200000E-01 3.560026000E+00 2.593760000E+00 7.023566735E+00
1.821290000E-01 3.670253000E+00 2.484200000E+00 6.807262984E+00
1.896180000E-01 3.794576000E+00 2.343700000E+00 6.538408801E+00
1.931560000E-01 3.841511000E+00 2.280220000E+00 6.418646068E+00
1.952020000E-01 3.866171000E+00 2.245700000E+00 6.351369351E+00
