# Data retrieved from https://www-nds.iaea.org/epdl97/za1to100.htm 03/01/2021
# Element, Ca  (Z = 20) 
# Atomic weight, g mol-1 = 40.08 
# Nominal density, g cm-3 =  1.55000E+0 
# Relativistic correction estimate f_rel(5CL)*,  e atom-1 =  0 
# Nuclear Thomson correction f_NT*, e atom-1 =  0 
#    E [keV]      f1 [e atom-1]      f2 [e atom-1]    Wavelength [nm] 
1.000000000E-03 7.388300000E+00 0.000000000E+00 1.239800000E+03
1.125000000E-03 7.388000000E+00 0.000000000E+00 1.102044444E+03
1.195310000E-03 7.387900000E+00 0.000000000E+00 1.037220470E+03
1.262660000E-03 7.387700000E+00 0.000000000E+00 9.818953638E+02
1.388940000E-03 7.387500000E+00 0.000000000E+00 8.926231515E+02
1.499430000E-03 7.387300000E+00 0.000000000E+00 8.268475354E+02
1.596110000E-03 7.387100000E+00 0.000000000E+00 7.767635063E+02
1.680700000E-03 7.386900000E+00 0.000000000E+00 7.376688285E+02
1.754720000E-03 7.386700000E+00 0.000000000E+00 7.065514726E+02
1.819490000E-03 7.386600000E+00 0.000000000E+00 6.813997329E+02
1.876160000E-03 7.386500000E+00 0.000000000E+00 6.608178407E+02
1.925750000E-03 7.386400000E+00 0.000000000E+00 6.438011164E+02
1.969140000E-03 7.386300000E+00 0.000000000E+00 6.296149588E+02
2.007110000E-03 7.386200000E+00 0.000000000E+00 6.177040621E+02
2.040330000E-03 7.386100000E+00 0.000000000E+00 6.076468022E+02
2.069390000E-03 7.385900000E+00 0.000000000E+00 5.991137485E+02
2.094830000E-03 7.385800000E+00 0.000000000E+00 5.918380012E+02
2.117080000E-03 7.385700000E+00 0.000000000E+00 5.856179266E+02
2.136560000E-03 7.385600000E+00 0.000000000E+00 5.802785786E+02
2.153590000E-03 7.385500000E+00 0.000000000E+00 5.756898945E+02
2.183410000E-03 7.385400000E+00 0.000000000E+00 5.678273893E+02
2.205780000E-03 7.385300000E+00 0.000000000E+00 5.620687467E+02
2.222550000E-03 7.385200000E+00 0.000000000E+00 5.578277204E+02
2.235130000E-03 7.385200000E+00 0.000000000E+00 5.546880942E+02
2.244560000E-03 7.385100000E+00 0.000000000E+00 5.523577004E+02
2.251640000E-03 7.385100000E+00 0.000000000E+00 5.506208808E+02
2.262250000E-03 7.385000000E+00 0.000000000E+00 5.480384573E+02
2.267560000E-03 7.385000000E+00 0.000000000E+00 5.467551024E+02
2.272870000E-03 7.385000000E+00 0.000000000E+00 5.454777440E+02
2.278460000E-03 7.385000000E+00 0.000000000E+00 5.441394626E+02
2.284060000E-03 7.384900000E+00 0.000000000E+00 5.428053554E+02
2.287840000E-03 7.384900000E+00 0.000000000E+00 5.419085251E+02
2.289650000E-03 7.384900000E+00 0.000000000E+00 5.414801389E+02
2.295240000E-03 7.384900000E+00 0.000000000E+00 5.401613775E+02
2.299100000E-03 7.384900000E+00 0.000000000E+00 5.392544909E+02
2.300840000E-03 7.384900000E+00 0.000000000E+00 5.388466821E+02
2.304730000E-03 7.384900000E+00 0.000000000E+00 5.379371987E+02
2.310360000E-03 7.384800000E+00 0.000000000E+00 5.366263266E+02
2.313580000E-03 7.384800000E+00 0.000000000E+00 5.358794595E+02
2.318400000E-03 7.384800000E+00 0.000000000E+00 5.347653554E+02
2.320810000E-03 7.384800000E+00 0.000000000E+00 5.342100387E+02
2.323220000E-03 7.384800000E+00 0.000000000E+00 5.336558742E+02
2.326010000E-03 7.384800000E+00 0.000000000E+00 5.330157652E+02
2.328810000E-03 7.384700000E+00 0.000000000E+00 5.323749039E+02
2.333010000E-03 7.384700000E+00 0.000000000E+00 5.314164963E+02
2.334400000E-03 7.384700000E+00 0.000000000E+00 5.311000685E+02
2.335100000E-03 7.384700000E+00 0.000000000E+00 5.309408591E+02
2.338770000E-03 7.384700000E+00 0.000000000E+00 5.301077062E+02
2.339080000E-03 7.384700000E+00 0.000000000E+00 5.300374506E+02
2.339310000E-03 7.384700000E+00 0.000000000E+00 5.299853376E+02
2.339480000E-03 7.384700000E+00 0.000000000E+00 5.299468258E+02
2.339740000E-03 7.384700000E+00 0.000000000E+00 5.298879363E+02
2.339870000E-03 7.384700000E+00 0.000000000E+00 5.298584964E+02
2.340000000E-03 7.384700000E+00 0.000000000E+00 5.298290598E+02
2.344150000E-03 7.384700000E+00 0.000000000E+00 5.288910693E+02
2.345560000E-03 7.384700000E+00 0.000000000E+00 5.285731339E+02
2.349780000E-03 7.384600000E+00 0.000000000E+00 5.276238627E+02
2.351530000E-03 7.384600000E+00 0.000000000E+00 5.272312069E+02
2.356780000E-03 7.384600000E+00 0.000000000E+00 5.260567384E+02
2.359580000E-03 7.384600000E+00 0.000000000E+00 5.254324922E+02
2.363770000E-03 7.384600000E+00 0.000000000E+00 5.245011147E+02
2.367970000E-03 7.384600000E+00 0.000000000E+00 5.235708223E+02
2.372310000E-03 7.384500000E+00 0.000000000E+00 5.226129806E+02
2.377940000E-03 7.384500000E+00 0.000000000E+00 5.213756445E+02
2.383570000E-03 7.384500000E+00 0.000000000E+00 5.201441535E+02
2.384750000E-03 7.384500000E+00 0.000000000E+00 5.198867806E+02
2.389200000E-03 7.384500000E+00 0.000000000E+00 5.189184664E+02
2.394830000E-03 7.384400000E+00 0.000000000E+00 5.176985423E+02
2.400460000E-03 7.384400000E+00 0.000000000E+00 5.164843405E+02
2.404350000E-03 7.384400000E+00 0.000000000E+00 5.156487200E+02
2.412100000E-03 7.384400000E+00 0.000000000E+00 5.139919572E+02
2.419790000E-03 7.384300000E+00 0.000000000E+00 5.123585104E+02
2.427420000E-03 7.384300000E+00 0.000000000E+00 5.107480370E+02
2.442560000E-03 7.384200000E+00 0.000000000E+00 5.075822088E+02
2.457460000E-03 7.384200000E+00 0.000000000E+00 5.045046511E+02
2.472130000E-03 7.384100000E+00 0.000000000E+00 5.015108429E+02
2.501020000E-03 7.384000000E+00 0.000000000E+00 4.957177472E+02
2.529000000E-03 7.383800000E+00 0.000000000E+00 4.902332938E+02
2.556100000E-03 7.383700000E+00 0.000000000E+00 4.850357967E+02
2.582360000E-03 7.383600000E+00 0.000000000E+00 4.801034712E+02
2.633230000E-03 7.383300000E+00 0.000000000E+00 4.708286021E+02
2.680930000E-03 7.383100000E+00 0.000000000E+00 4.624514627E+02
2.725640000E-03 7.382900000E+00 0.000000000E+00 4.548656462E+02
2.809480000E-03 7.382500000E+00 0.000000000E+00 4.412916269E+02
2.882840000E-03 7.382200000E+00 0.000000000E+00 4.300620222E+02
3.011220000E-03 7.381600000E+00 0.000000000E+00 4.117268084E+02
3.107510000E-03 7.381200000E+00 0.000000000E+00 3.989689494E+02
3.251940000E-03 7.380500000E+00 0.000000000E+00 3.812493465E+02
3.396360000E-03 7.379800000E+00 0.000000000E+00 3.650378641E+02
3.404720000E-03 7.379800000E+00 0.000000000E+00 3.641415447E+02
3.413080000E-03 7.379800000E+00 0.000000000E+00 3.632496162E+02
3.421440000E-03 7.379700000E+00 0.000000000E+00 3.623620464E+02
3.429800000E-03 7.379700000E+00 0.000000000E+00 3.614788034E+02
3.438160000E-03 7.379600000E+00 0.000000000E+00 3.605998557E+02
3.446520000E-03 7.379600000E+00 0.000000000E+00 3.597251721E+02
3.454880000E-03 7.379600000E+00 0.000000000E+00 3.588547214E+02
3.463240000E-03 7.379500000E+00 0.000000000E+00 3.579884732E+02
3.471600000E-03 7.379500000E+00 0.000000000E+00 3.571263971E+02
3.479960000E-03 7.379500000E+00 0.000000000E+00 3.562684629E+02
3.488320000E-03 7.379400000E+00 0.000000000E+00 3.554146409E+02
3.496680000E-03 7.379400000E+00 0.000000000E+00 3.545649016E+02
3.505040000E-03 7.379300000E+00 0.000000000E+00 3.537192158E+02
3.521760000E-03 7.379300000E+00 0.000000000E+00 3.520398891E+02
3.530120000E-03 7.379200000E+00 0.000000000E+00 3.512061913E+02
3.538480000E-03 7.379200000E+00 0.000000000E+00 3.503764328E+02
3.546840000E-03 7.379100000E+00 0.000000000E+00 3.495505859E+02
3.555200000E-03 7.379100000E+00 0.000000000E+00 3.487286229E+02
3.563560000E-03 7.379100000E+00 0.000000000E+00 3.479105164E+02
3.824830000E-03 7.377900000E+00 0.000000000E+00 3.241451254E+02
3.868380000E-03 7.377700000E+00 0.000000000E+00 3.204959182E+02
3.911920000E-03 7.377500000E+00 0.000000000E+00 3.169287715E+02
3.912460000E-03 7.377500000E+00 0.000000000E+00 3.168850289E+02
3.931720000E-03 7.377400000E+00 0.000000000E+00 3.153327297E+02
3.941350000E-03 7.377300000E+00 0.000000000E+00 3.145622693E+02
3.946470000E-03 7.377300000E+00 0.000000000E+00 3.141541682E+02
3.950820000E-03 7.377300000E+00 0.000000000E+00 3.138082727E+02
3.965900000E-03 7.377200000E+00 0.000000000E+00 3.126150432E+02
3.970260000E-03 7.377200000E+00 0.000000000E+00 3.122717404E+02
3.975610000E-03 7.377200000E+00 0.000000000E+00 3.118515146E+02
3.979990000E-03 7.377200000E+00 0.000000000E+00 3.115083204E+02
3.985330000E-03 7.377100000E+00 0.000000000E+00 3.110909260E+02
3.989710000E-03 7.377100000E+00 0.000000000E+00 3.107494028E+02
4.000000000E-03 7.377100000E+00 0.000000000E+00 3.099500000E+02
4.005620000E-03 7.377000000E+00 0.000000000E+00 3.095151312E+02
4.010260000E-03 7.376900000E+00 0.000000000E+00 3.091570123E+02
4.017220000E-03 7.376800000E+00 0.000000000E+00 3.086213849E+02
4.020700000E-03 7.376700000E+00 0.000000000E+00 3.083542667E+02
4.024180000E-03 7.376700000E+00 0.000000000E+00 3.080876104E+02
4.033900000E-03 7.376500000E+00 0.000000000E+00 3.073452490E+02
4.038340000E-03 7.376400000E+00 0.000000000E+00 3.070073347E+02
4.048060000E-03 7.376300000E+00 0.000000000E+00 3.062701640E+02
4.057780000E-03 7.376100000E+00 0.000000000E+00 3.055365249E+02
4.067510000E-03 7.376000000E+00 0.000000000E+00 3.048056428E+02
4.074490000E-03 7.375900000E+00 0.000000000E+00 3.042834809E+02
4.084960000E-03 7.375700000E+00 0.000000000E+00 3.035035839E+02
4.095430000E-03 7.375500000E+00 0.000000000E+00 3.027276745E+02
4.101890000E-03 7.375400000E+00 0.000000000E+00 3.022509136E+02
4.106410000E-03 7.375300000E+00 0.000000000E+00 3.019182205E+02
4.111610000E-03 7.375300000E+00 0.000000000E+00 3.015363811E+02
4.116130000E-03 7.375200000E+00 0.000000000E+00 3.012052583E+02
4.121320000E-03 7.375100000E+00 0.000000000E+00 3.008259490E+02
4.125860000E-03 7.375000000E+00 0.000000000E+00 3.004949271E+02
4.140750000E-03 7.374800000E+00 0.000000000E+00 2.994143573E+02
4.145300000E-03 7.374700000E+00 0.000000000E+00 2.990857115E+02
4.166840000E-03 7.374400000E+00 0.000000000E+00 2.975396224E+02
4.207210000E-03 7.373700000E+00 0.000000000E+00 2.946846010E+02
4.277870000E-03 7.372600000E+00 0.000000000E+00 2.898171286E+02
4.489840000E-03 7.369100000E+00 0.000000000E+00 2.761345616E+02
4.489850000E-03 7.369100000E+00 0.000000000E+00 2.761339466E+02
4.500900000E-03 7.368900000E+00 0.000000000E+00 2.754560199E+02
4.511950000E-03 7.368800000E+00 0.000000000E+00 2.747814138E+02
4.523350000E-03 7.368600000E+00 0.000000000E+00 2.740888943E+02
4.523600000E-03 7.368600000E+00 0.000000000E+00 2.740737466E+02
4.536560000E-03 7.368400000E+00 0.000000000E+00 2.732907754E+02
4.538400000E-03 7.368300000E+00 0.000000000E+00 2.731799753E+02
4.558890000E-03 7.368000000E+00 0.000000000E+00 2.719521638E+02
4.560740000E-03 7.368000000E+00 0.000000000E+00 2.718418502E+02
4.570060000E-03 7.367800000E+00 0.000000000E+00 2.712874667E+02
4.571920000E-03 7.367800000E+00 0.000000000E+00 2.711770985E+02
4.583090000E-03 7.367600000E+00 0.000000000E+00 2.705161801E+02
4.594260000E-03 7.367400000E+00 0.000000000E+00 2.698584756E+02
4.610070000E-03 7.367200000E+00 0.000000000E+00 2.689330097E+02
4.625890000E-03 7.366900000E+00 0.000000000E+00 2.680132904E+02
4.638940000E-03 7.366700000E+00 0.000000000E+00 2.672593308E+02
4.650110000E-03 7.366500000E+00 0.000000000E+00 2.666173488E+02
4.661280000E-03 7.366300000E+00 0.000000000E+00 2.659784437E+02
4.672450000E-03 7.366100000E+00 0.000000000E+00 2.653425933E+02
4.705960000E-03 7.365600000E+00 0.000000000E+00 2.634531530E+02
4.717130000E-03 7.365400000E+00 0.000000000E+00 2.628293051E+02
4.728300000E-03 7.365200000E+00 0.000000000E+00 2.622084047E+02
4.737550000E-03 7.365100000E+00 0.000000000E+00 2.616964465E+02
4.739480000E-03 7.365100000E+00 0.000000000E+00 2.615898791E+02
4.750650000E-03 7.364900000E+00 0.000000000E+00 2.609748140E+02
4.759880000E-03 7.364700000E+00 0.000000000E+00 2.604687513E+02
4.761820000E-03 7.364700000E+00 0.000000000E+00 2.603626345E+02
4.788660000E-03 7.364300000E+00 0.000000000E+00 2.589033258E+02
4.800450000E-03 7.364100000E+00 0.000000000E+00 2.582674541E+02
4.812240000E-03 7.363900000E+00 0.000000000E+00 2.576346982E+02
4.813580000E-03 7.363900000E+00 0.000000000E+00 2.575629781E+02
4.814550000E-03 7.363800000E+00 0.000000000E+00 2.575110862E+02
4.838250000E-03 7.363500000E+00 0.000000000E+00 2.562496771E+02
4.850100000E-03 7.363300000E+00 0.000000000E+00 2.556235954E+02
4.861950000E-03 7.363100000E+00 0.000000000E+00 2.550005656E+02
4.873800000E-03 7.362900000E+00 0.000000000E+00 2.543805655E+02
4.908360000E-03 7.362300000E+00 0.000000000E+00 2.525894596E+02
4.921200000E-03 7.362100000E+00 0.000000000E+00 2.519304235E+02
4.933050000E-03 7.361900000E+00 0.000000000E+00 2.513252450E+02
4.944900000E-03 7.361700000E+00 0.000000000E+00 2.507229671E+02
4.956750000E-03 7.361500000E+00 0.000000000E+00 2.501235689E+02
4.992300000E-03 7.361000000E+00 0.000000000E+00 2.483424474E+02
5.004150000E-03 7.360800000E+00 0.000000000E+00 2.477543639E+02
5.016000000E-03 7.360600000E+00 0.000000000E+00 2.471690590E+02
5.027850000E-03 7.360400000E+00 0.000000000E+00 2.465865131E+02
5.051550000E-03 7.360000000E+00 0.000000000E+00 2.454296206E+02
5.064150000E-03 7.359800000E+00 0.000000000E+00 2.448189726E+02
5.076380000E-03 7.359600000E+00 0.000000000E+00 2.442291554E+02
5.088600000E-03 7.359400000E+00 0.000000000E+00 2.436426522E+02
5.100820000E-03 7.359200000E+00 0.000000000E+00 2.430589591E+02
5.113050000E-03 7.359000000E+00 0.000000000E+00 2.424775819E+02
5.145540000E-03 7.358500000E+00 0.000000000E+00 2.409465284E+02
5.161940000E-03 7.358200000E+00 0.000000000E+00 2.401810172E+02
5.198870000E-03 7.357600000E+00 0.000000000E+00 2.384748994E+02
5.212890000E-03 7.357400000E+00 0.000000000E+00 2.378335242E+02
5.258200000E-03 7.355700000E+00 3.601300000E-07 2.357841086E+02
5.356470000E-03 7.346400000E+00 8.254750000E-04 2.314584045E+02
5.426690000E-03 7.334700000E+00 1.262800000E-02 2.284633911E+02
5.492880000E-03 7.341200000E+00 3.273160000E-02 2.257103742E+02
5.575300000E-03 7.359200000E+00 3.605190000E-02 2.223736839E+02
5.764610000E-03 7.373000000E+00 2.715850000E-02 2.150709241E+02
5.939900000E-03 7.376700000E+00 2.043720000E-02 2.087240526E+02
6.089900000E-03 7.377400000E+00 1.576590000E-02 2.035829817E+02
6.259930000E-03 7.376700000E+00 1.148000000E-02 1.980533329E+02
6.414950000E-03 7.375300000E+00 8.366480000E-03 1.932672897E+02
6.564950000E-03 7.373400000E+00 5.964180000E-03 1.888514002E+02
6.692460000E-03 7.371600000E+00 4.331400000E-03 1.852532552E+02
6.813820000E-03 7.369800000E+00 3.079600000E-03 1.819537352E+02
6.924970000E-03 7.368100000E+00 2.163480000E-03 1.790332666E+02
7.017480000E-03 7.366600000E+00 1.550850000E-03 1.766731077E+02
7.099980000E-03 7.365300000E+00 1.108580000E-03 1.746202102E+02
7.171740000E-03 7.364100000E+00 7.972570000E-04 1.728729709E+02
7.233120000E-03 7.363100000E+00 5.813560000E-04 1.714059770E+02
7.289990000E-03 7.362200000E+00 4.200550000E-04 1.700688204E+02
7.340150000E-03 7.361400000E+00 3.070360000E-04 1.689066300E+02
7.375930000E-03 7.360900000E+00 2.423590000E-04 1.680872785E+02
7.416380000E-03 7.360200000E+00 1.845440000E-04 1.671705064E+02
7.445620000E-03 7.359800000E+00 1.524810000E-04 1.665140042E+02
7.480000000E-03 7.359200000E+00 1.248740000E-04 1.657486631E+02
7.510000000E-03 7.358800000E+00 1.094020000E-04 1.650865513E+02
7.535000000E-03 7.358400000E+00 1.024630000E-04 1.645388188E+02
7.565000000E-03 7.357900000E+00 1.010740000E-04 1.638863186E+02
7.592000000E-03 7.357500000E+00 1.061140000E-04 1.633034773E+02
7.618000000E-03 7.357100000E+00 1.164330000E-04 1.627461276E+02
7.645370000E-03 7.356700000E+00 1.329290000E-04 1.621635055E+02
7.678740000E-03 7.356200000E+00 1.606150000E-04 1.614587810E+02
7.717320000E-03 7.355600000E+00 2.026360000E-04 1.606516252E+02
7.762020000E-03 7.354900000E+00 2.642420000E-04 1.597264630E+02
7.809990000E-03 7.354200000E+00 3.450560000E-04 1.587454017E+02
7.877490000E-03 7.353300000E+00 4.831160000E-04 1.573851569E+02
7.964990000E-03 7.352000000E+00 7.015910000E-04 1.556561904E+02
8.084990000E-03 7.349800000E+00 1.066710000E-03 1.533458916E+02
8.211800000E-03 7.347200000E+00 1.525170000E-03 1.509778611E+02
8.406220000E-03 7.343300000E+00 2.351710000E-03 1.474860282E+02
8.712560000E-03 7.337600000E+00 3.892100000E-03 1.423003113E+02
8.890030000E-03 7.334300000E+00 4.885580000E-03 1.394595969E+02
9.700000000E-03 7.320900000E+00 9.943070000E-03 1.278144330E+02
1.165000000E-02 7.294500000E+00 2.246340000E-02 1.064206009E+02
1.333520000E-02 7.275500000E+00 3.168340000E-02 9.297198392E+01
1.405600000E-02 7.267800000E+00 3.506830000E-02 8.820432555E+01
1.500000000E-02 7.258100000E+00 3.910760000E-02 8.265333333E+01
1.527460000E-02 7.255300000E+00 4.015940000E-02 8.116742828E+01
1.565130000E-02 7.251600000E+00 4.160240000E-02 7.921386722E+01
1.601630000E-02 7.247600000E+00 4.289090000E-02 7.740863995E+01
1.636640000E-02 7.238300000E+00 4.411080000E-02 7.575276176E+01
1.670910000E-02 7.229100000E+00 4.523190000E-02 7.419908912E+01
1.704100000E-02 7.220200000E+00 4.627320000E-02 7.275394636E+01
1.768410000E-02 7.203100000E+00 4.818590000E-02 7.010817627E+01
1.828700000E-02 7.187000000E+00 4.987120000E-02 6.779679554E+01
1.885220000E-02 7.172000000E+00 5.130430000E-02 6.576420789E+01
1.938210000E-02 7.157900000E+00 5.261050000E-02 6.396623689E+01
1.987890000E-02 7.144600000E+00 5.371060000E-02 6.236763604E+01
2.034460000E-02 7.132200000E+00 5.470570000E-02 6.094000374E+01
2.121780000E-02 7.108900000E+00 5.647130000E-02 5.843207119E+01
2.198190000E-02 7.088500000E+00 5.786810000E-02 5.640094805E+01
2.265050000E-02 7.070600000E+00 5.901260000E-02 5.473609854E+01
2.323550000E-02 7.055000000E+00 5.990940000E-02 5.335800822E+01
2.374740000E-02 7.041300000E+00 6.069410000E-02 5.220782065E+01
2.426610000E-02 7.018900000E+00 6.148930000E-02 5.109185242E+01
2.458720000E-02 7.000100000E+00 6.178940000E-02 5.042461118E+01
2.493010000E-02 6.980000000E+00 6.211000000E-02 4.973104801E+01
2.523010000E-02 6.962300000E+00 6.239050000E-02 4.913971804E+01
2.549270000E-02 6.946900000E+00 6.263600000E-02 4.863353038E+01
2.572240000E-02 6.933400000E+00 6.285070000E-02 4.819923491E+01
2.592340000E-02 6.921600000E+00 6.303870000E-02 4.782551671E+01
2.627520000E-02 6.901000000E+00 6.336750000E-02 4.718517842E+01
2.653900000E-02 6.885500000E+00 6.361420000E-02 4.671615359E+01
2.673690000E-02 6.873900000E+00 6.379910000E-02 4.637037203E+01
2.688530000E-02 6.865200000E+00 6.393790000E-02 4.611441940E+01
2.699660000E-02 6.858600000E+00 6.404190000E-02 4.592430158E+01
2.708010000E-02 6.853700000E+00 6.412000000E-02 4.578269652E+01
2.720530000E-02 6.846400000E+00 6.423700000E-02 4.557200251E+01
2.726790000E-02 6.842700000E+00 6.429560000E-02 4.546738106E+01
2.733050000E-02 6.839000000E+00 6.435410000E-02 4.536323887E+01
2.735720000E-02 6.837500000E+00 6.437910000E-02 4.531896539E+01
2.749190000E-02 6.829600000E+00 6.450500000E-02 4.509691946E+01
2.755920000E-02 6.825600000E+00 6.456800000E-02 4.498679207E+01
2.762660000E-02 6.821600000E+00 6.463090000E-02 4.487703880E+01
2.769390000E-02 6.817700000E+00 6.469390000E-02 4.476798140E+01
2.776130000E-02 6.813700000E+00 6.475680000E-02 4.465929189E+01
2.781500000E-02 6.810600000E+00 6.480700000E-02 4.457307208E+01
2.786870000E-02 6.807400000E+00 6.485720000E-02 4.448718455E+01
2.790230000E-02 6.805500000E+00 6.488870000E-02 4.443361300E+01
2.793590000E-02 6.803500000E+00 6.492010000E-02 4.438017032E+01
2.797760000E-02 6.801000000E+00 6.495910000E-02 4.431402265E+01
2.804590000E-02 6.797000000E+00 6.502300000E-02 4.420610499E+01
2.811430000E-02 6.793000000E+00 6.508690000E-02 4.409855483E+01
2.811540000E-02 6.792900000E+00 6.508790000E-02 4.409682950E+01
2.811640000E-02 6.792900000E+00 6.508880000E-02 4.409526113E+01
2.811750000E-02 6.792800000E+00 6.508980000E-02 4.409353605E+01
2.811800000E-02 6.792800000E+00 6.509030000E-02 4.409275197E+01
2.811900000E-02 6.792700000E+00 6.509120000E-02 4.409118390E+01
2.812300000E-02 6.792500000E+00 6.509500000E-02 4.408491270E+01
