# Data retrieved from https://www-nds.iaea.org/epdl97/za1to100.htm 03/01/2021
# Element, Cd  (Z = 48) 
# Atomic weight, g mol-1 = 112.4 
# Nominal density, g cm-3 =  8.65000E+0 
# Relativistic correction estimate f_rel(5CL)*,  e atom-1 =  0 
# Nuclear Thomson correction f_NT*, e atom-1 =  0 
#    E [keV]      f1 [e atom-1]      f2 [e atom-1]    Wavelength [nm] 
1.000000000E-03 2.846800000E+00 0.000000000E+00 1.239800000E+03
1.125000000E-03 2.843600000E+00 0.000000000E+00 1.102044444E+03
1.265630000E-03 2.840000000E+00 0.000000000E+00 9.795911917E+02
1.423830000E-03 2.836000000E+00 0.000000000E+00 8.707500193E+02
1.601810000E-03 2.831500000E+00 0.000000000E+00 7.739994132E+02
1.802030000E-03 2.826400000E+00 0.000000000E+00 6.880018646E+02
2.027290000E-03 2.819900000E+00 0.000000000E+00 6.115553276E+02
2.280700000E-03 2.806700000E+00 0.000000000E+00 5.436050335E+02
2.537440000E-03 2.793200000E+00 0.000000000E+00 4.886026862E+02
2.762080000E-03 2.781500000E+00 0.000000000E+00 4.488646238E+02
2.958650000E-03 2.771200000E+00 0.000000000E+00 4.190424687E+02
3.130640000E-03 2.762200000E+00 0.000000000E+00 3.960212608E+02
3.281140000E-03 2.754300000E+00 0.000000000E+00 3.778564767E+02
3.412820000E-03 2.747400000E+00 0.000000000E+00 3.632772897E+02
3.528050000E-03 2.741400000E+00 0.000000000E+00 3.514122532E+02
3.628870000E-03 2.736100000E+00 0.000000000E+00 3.416490533E+02
3.717080000E-03 2.731500000E+00 0.000000000E+00 3.335413819E+02
3.794280000E-03 2.727500000E+00 0.000000000E+00 3.267550102E+02
3.861820000E-03 2.723900000E+00 0.000000000E+00 3.210403385E+02
3.920920000E-03 2.720800000E+00 0.000000000E+00 3.162012997E+02
3.972630000E-03 2.718100000E+00 0.000000000E+00 3.120854447E+02
4.063120000E-03 2.709500000E+00 0.000000000E+00 3.051349702E+02
4.130990000E-03 2.701700000E+00 0.000000000E+00 3.001217626E+02
4.181900000E-03 2.695900000E+00 0.000000000E+00 2.964681126E+02
4.220080000E-03 2.691500000E+00 0.000000000E+00 2.937858998E+02
4.248710000E-03 2.688200000E+00 0.000000000E+00 2.918062188E+02
4.270180000E-03 2.685800000E+00 0.000000000E+00 2.903390489E+02
4.286290000E-03 2.683900000E+00 0.000000000E+00 2.892478110E+02
4.310450000E-03 2.681200000E+00 0.000000000E+00 2.876265819E+02
4.328570000E-03 2.679100000E+00 0.000000000E+00 2.864225368E+02
4.334610000E-03 2.678400000E+00 0.000000000E+00 2.860234254E+02
4.345280000E-03 2.677200000E+00 0.000000000E+00 2.853210840E+02
4.355950000E-03 2.676000000E+00 0.000000000E+00 2.846221835E+02
4.366620000E-03 2.674700000E+00 0.000000000E+00 2.839266985E+02
4.377290000E-03 2.673500000E+00 0.000000000E+00 2.832346041E+02
4.387950000E-03 2.672300000E+00 0.000000000E+00 2.825465194E+02
4.398620000E-03 2.671100000E+00 0.000000000E+00 2.818611292E+02
4.409290000E-03 2.669900000E+00 0.000000000E+00 2.811790560E+02
4.414630000E-03 2.669300000E+00 0.000000000E+00 2.808389378E+02
4.419960000E-03 2.668600000E+00 0.000000000E+00 2.805002760E+02
4.430630000E-03 2.667400000E+00 0.000000000E+00 2.798247653E+02
4.441300000E-03 2.666200000E+00 0.000000000E+00 2.791525004E+02
4.443970000E-03 2.665900000E+00 0.000000000E+00 2.789847816E+02
4.451970000E-03 2.665000000E+00 0.000000000E+00 2.784834579E+02
4.453300000E-03 2.664800000E+00 0.000000000E+00 2.784002874E+02
4.455640000E-03 2.664600000E+00 0.000000000E+00 2.782540780E+02
4.462640000E-03 2.663800000E+00 0.000000000E+00 2.778176147E+02
4.463300000E-03 2.663700000E+00 0.000000000E+00 2.777765331E+02
4.463930000E-03 2.663600000E+00 0.000000000E+00 2.777373301E+02
4.464520000E-03 2.663500000E+00 0.000000000E+00 2.777006263E+02
4.465070000E-03 2.663500000E+00 0.000000000E+00 2.776664196E+02
4.465580000E-03 2.663400000E+00 0.000000000E+00 2.776347081E+02
4.466060000E-03 2.663400000E+00 0.000000000E+00 2.776048687E+02
4.466520000E-03 2.663300000E+00 0.000000000E+00 2.775762786E+02
4.467040000E-03 2.663300000E+00 0.000000000E+00 2.775439665E+02
4.467820000E-03 2.663200000E+00 0.000000000E+00 2.774955124E+02
4.469190000E-03 2.663000000E+00 0.000000000E+00 2.774104480E+02
4.471250000E-03 2.662800000E+00 0.000000000E+00 2.772826391E+02
4.473310000E-03 2.662500000E+00 0.000000000E+00 2.771549479E+02
4.474640000E-03 2.662400000E+00 0.000000000E+00 2.770725690E+02
4.476970000E-03 2.662100000E+00 0.000000000E+00 2.769283690E+02
4.478730000E-03 2.661900000E+00 0.000000000E+00 2.768195448E+02
4.480040000E-03 2.661800000E+00 0.000000000E+00 2.767386005E+02
4.482010000E-03 2.661500000E+00 0.000000000E+00 2.766169643E+02
4.483980000E-03 2.661300000E+00 0.000000000E+00 2.764954349E+02
4.486640000E-03 2.661000000E+00 0.000000000E+00 2.763315087E+02
4.488640000E-03 2.660800000E+00 0.000000000E+00 2.762083838E+02
4.490140000E-03 2.660600000E+00 0.000000000E+00 2.761161122E+02
4.491270000E-03 2.660500000E+00 0.000000000E+00 2.760466416E+02
4.492110000E-03 2.660400000E+00 0.000000000E+00 2.759950224E+02
4.492430000E-03 2.660300000E+00 0.000000000E+00 2.759753630E+02
4.492830000E-03 2.660300000E+00 0.000000000E+00 2.759507927E+02
4.492940000E-03 2.660300000E+00 0.000000000E+00 2.759440366E+02
4.493150000E-03 2.660300000E+00 0.000000000E+00 2.759311396E+02
4.493530000E-03 2.660200000E+00 0.000000000E+00 2.759078052E+02
4.494090000E-03 2.660200000E+00 0.000000000E+00 2.758734249E+02
4.494370000E-03 2.660100000E+00 0.000000000E+00 2.758562379E+02
4.496290000E-03 2.659900000E+00 0.000000000E+00 2.757384421E+02
4.497520000E-03 2.659800000E+00 0.000000000E+00 2.756630321E+02
4.498850000E-03 2.659600000E+00 0.000000000E+00 2.755815375E+02
4.505310000E-03 2.658900000E+00 0.000000000E+00 2.751863912E+02
4.515980000E-03 2.657700000E+00 0.000000000E+00 2.745362026E+02
4.520070000E-03 2.657200000E+00 0.000000000E+00 2.742877876E+02
4.526650000E-03 2.656400000E+00 0.000000000E+00 2.738890791E+02
4.531140000E-03 2.655900000E+00 0.000000000E+00 2.736176768E+02
4.542210000E-03 2.654700000E+00 0.000000000E+00 2.729508323E+02
4.547990000E-03 2.654000000E+00 0.000000000E+00 2.726039415E+02
4.553280000E-03 2.653400000E+00 0.000000000E+00 2.722872303E+02
4.558820000E-03 2.652800000E+00 0.000000000E+00 2.719563396E+02
4.564360000E-03 2.652100000E+00 0.000000000E+00 2.716262521E+02
4.569890000E-03 2.651500000E+00 0.000000000E+00 2.712975586E+02
4.575430000E-03 2.650900000E+00 0.000000000E+00 2.709690674E+02
4.580960000E-03 2.650200000E+00 0.000000000E+00 2.706419615E+02
4.583730000E-03 2.649900000E+00 0.000000000E+00 2.704784095E+02
4.592030000E-03 2.648900000E+00 0.000000000E+00 2.699895253E+02
4.596190000E-03 2.648500000E+00 0.000000000E+00 2.697451585E+02
4.598950000E-03 2.648200000E+00 0.000000000E+00 2.695832744E+02
4.601370000E-03 2.647900000E+00 0.000000000E+00 2.694414924E+02
4.603190000E-03 2.647700000E+00 0.000000000E+00 2.693349612E+02
4.603530000E-03 2.647600000E+00 0.000000000E+00 2.693150691E+02
4.604810000E-03 2.647500000E+00 0.000000000E+00 2.692402075E+02
4.606720000E-03 2.647300000E+00 0.000000000E+00 2.691285774E+02
4.607680000E-03 2.647200000E+00 0.000000000E+00 2.690725050E+02
4.610020000E-03 2.646900000E+00 0.000000000E+00 2.689359265E+02
4.619710000E-03 2.645800000E+00 0.000000000E+00 2.683718242E+02
4.622480000E-03 2.645500000E+00 0.000000000E+00 2.682110036E+02
4.630780000E-03 2.644500000E+00 0.000000000E+00 2.677302744E+02
4.636320000E-03 2.643900000E+00 0.000000000E+00 2.674103599E+02
4.641850000E-03 2.643200000E+00 0.000000000E+00 2.670917845E+02
4.647390000E-03 2.642600000E+00 0.000000000E+00 2.667733932E+02
4.652920000E-03 2.642000000E+00 0.000000000E+00 2.664563328E+02
4.664000000E-03 2.640700000E+00 0.000000000E+00 2.658233276E+02
4.675070000E-03 2.639400000E+00 0.000000000E+00 2.651938901E+02
4.686140000E-03 2.638200000E+00 0.000000000E+00 2.645674265E+02
4.697210000E-03 2.636900000E+00 0.000000000E+00 2.639439156E+02
4.708280000E-03 2.635600000E+00 0.000000000E+00 2.633233368E+02
4.719350000E-03 2.634400000E+00 0.000000000E+00 2.627056692E+02
4.726840000E-03 2.633500000E+00 0.000000000E+00 2.622893942E+02
4.741710000E-03 2.631800000E+00 0.000000000E+00 2.614668548E+02
4.756340000E-03 2.630100000E+00 0.000000000E+00 2.606626103E+02
4.785150000E-03 2.626800000E+00 0.000000000E+00 2.590932364E+02
4.813060000E-03 2.623700000E+00 0.000000000E+00 2.575908050E+02
4.840100000E-03 2.620600000E+00 0.000000000E+00 2.561517324E+02
4.892490000E-03 2.614600000E+00 0.000000000E+00 2.534087959E+02
4.941600000E-03 2.608900000E+00 0.000000000E+00 2.508903999E+02
4.987650000E-03 2.603700000E+00 0.000000000E+00 2.485739777E+02
5.073980000E-03 2.593800000E+00 0.000000000E+00 2.443446762E+02
5.149520000E-03 2.585100000E+00 0.000000000E+00 2.407603039E+02
5.281710000E-03 2.570000000E+00 0.000000000E+00 2.347345841E+02
5.380860000E-03 2.558700000E+00 0.000000000E+00 2.304092654E+02
5.529580000E-03 2.541700000E+00 0.000000000E+00 2.242123272E+02
5.678300000E-03 2.524600000E+00 0.000000000E+00 2.183399961E+02
5.692270000E-03 2.523000000E+00 0.000000000E+00 2.178041449E+02
5.706250000E-03 2.521400000E+00 0.000000000E+00 2.172705367E+02
5.720230000E-03 2.519800000E+00 0.000000000E+00 2.167395367E+02
5.734200000E-03 2.518200000E+00 0.000000000E+00 2.162115029E+02
5.748180000E-03 2.516600000E+00 0.000000000E+00 2.156856605E+02
5.762150000E-03 2.515000000E+00 0.000000000E+00 2.151627431E+02
5.776130000E-03 2.513400000E+00 0.000000000E+00 2.146419835E+02
5.790110000E-03 2.511800000E+00 0.000000000E+00 2.141237386E+02
5.804080000E-03 2.510200000E+00 0.000000000E+00 2.136083583E+02
5.818060000E-03 2.508600000E+00 0.000000000E+00 2.130950867E+02
5.832040000E-03 2.507000000E+00 0.000000000E+00 2.125842758E+02
5.846010000E-03 2.505400000E+00 0.000000000E+00 2.120762708E+02
5.859990000E-03 2.503800000E+00 0.000000000E+00 2.115703269E+02
5.887940000E-03 2.500600000E+00 0.000000000E+00 2.105660044E+02
5.901920000E-03 2.499000000E+00 0.000000000E+00 2.100672324E+02
5.915890000E-03 2.497400000E+00 0.000000000E+00 2.095711719E+02
5.929870000E-03 2.495800000E+00 0.000000000E+00 2.090770961E+02
5.945600000E-03 2.494000000E+00 0.000000000E+00 2.085239505E+02
5.957820000E-03 2.492400000E+00 0.000000000E+00 2.080962500E+02
6.214530000E-03 2.458100000E+00 0.000000000E+00 1.995002036E+02
6.342890000E-03 2.441000000E+00 0.000000000E+00 1.954629514E+02
6.407060000E-03 2.432400000E+00 0.000000000E+00 1.935052895E+02
6.439150000E-03 2.428100000E+00 0.000000000E+00 1.925409410E+02
6.455190000E-03 2.426000000E+00 0.000000000E+00 1.920625109E+02
6.471240000E-03 2.423800000E+00 0.000000000E+00 1.915861566E+02
6.495130000E-03 2.420600000E+00 0.000000000E+00 1.908814758E+02
6.503090000E-03 2.419600000E+00 0.000000000E+00 1.906478305E+02
6.507400000E-03 2.419000000E+00 0.000000000E+00 1.905215601E+02
6.511710000E-03 2.418400000E+00 0.000000000E+00 1.903954568E+02
6.519020000E-03 2.417400000E+00 0.000000000E+00 1.901819599E+02
6.526990000E-03 2.416400000E+00 0.000000000E+00 1.899497318E+02
6.534950000E-03 2.415300000E+00 0.000000000E+00 1.897183605E+02
6.543220000E-03 2.414200000E+00 0.000000000E+00 1.894785748E+02
6.545930000E-03 2.413800000E+00 0.000000000E+00 1.894001311E+02
6.550880000E-03 2.413200000E+00 0.000000000E+00 1.892570159E+02
6.557570000E-03 2.412300000E+00 0.000000000E+00 1.890639368E+02
6.561800000E-03 2.411700000E+00 0.000000000E+00 1.889420586E+02
6.565310000E-03 2.411300000E+00 0.000000000E+00 1.888410448E+02
6.575820000E-03 2.409800000E+00 0.000000000E+00 1.885392240E+02
6.578490000E-03 2.409500000E+00 0.000000000E+00 1.884627019E+02
6.583150000E-03 2.408900000E+00 0.000000000E+00 1.883292952E+02
6.586640000E-03 2.408400000E+00 0.000000000E+00 1.882295070E+02
6.591890000E-03 2.407700000E+00 0.000000000E+00 1.880795948E+02
6.597130000E-03 2.407000000E+00 0.000000000E+00 1.879302060E+02
6.600480000E-03 2.406600000E+00 0.000000000E+00 1.878348241E+02
6.603410000E-03 2.406200000E+00 0.000000000E+00 1.877514799E+02
6.608210000E-03 2.405500000E+00 0.000000000E+00 1.876151030E+02
6.611890000E-03 2.405000000E+00 0.000000000E+00 1.875106815E+02
6.613390000E-03 2.404800000E+00 0.000000000E+00 1.874681517E+02
6.616360000E-03 2.404400000E+00 0.000000000E+00 1.873839997E+02
6.619660000E-03 2.404000000E+00 0.000000000E+00 1.872905859E+02
6.621780000E-03 2.403700000E+00 0.000000000E+00 1.872306238E+02
6.622850000E-03 2.403600000E+00 0.000000000E+00 1.872003745E+02
6.623910000E-03 2.403400000E+00 0.000000000E+00 1.871704175E+02
6.631920000E-03 2.402400000E+00 0.000000000E+00 1.869443540E+02
6.635930000E-03 2.401800000E+00 0.000000000E+00 1.868313861E+02
6.647950000E-03 2.400200000E+00 0.000000000E+00 1.864935807E+02
6.651960000E-03 2.399700000E+00 0.000000000E+00 1.863811568E+02
6.655960000E-03 2.399100000E+00 0.000000000E+00 1.862691483E+02
6.671990000E-03 2.397000000E+00 0.000000000E+00 1.858216214E+02
6.688020000E-03 2.394900000E+00 0.000000000E+00 1.853762399E+02
6.704050000E-03 2.392700000E+00 0.000000000E+00 1.849329883E+02
6.713670000E-03 2.391400000E+00 0.000000000E+00 1.846679983E+02
6.728120000E-03 2.389500000E+00 0.000000000E+00 1.842713864E+02
6.742560000E-03 2.387600000E+00 0.000000000E+00 1.838767471E+02
6.752130000E-03 2.386300000E+00 0.000000000E+00 1.836161330E+02
6.768160000E-03 2.384200000E+00 0.000000000E+00 1.831812487E+02
6.784180000E-03 2.382000000E+00 0.000000000E+00 1.827486889E+02
6.791030000E-03 2.381100000E+00 0.000000000E+00 1.825643533E+02
6.800210000E-03 2.379900000E+00 0.000000000E+00 1.823178990E+02
6.824930000E-03 2.376600000E+00 0.000000000E+00 1.816575408E+02
6.832270000E-03 2.375600000E+00 0.000000000E+00 1.814623837E+02
6.841100000E-03 2.374400000E+00 0.000000000E+00 1.812281651E+02
6.855670000E-03 2.372500000E+00 0.000000000E+00 1.808430102E+02
6.857260000E-03 2.372300000E+00 0.000000000E+00 1.808010780E+02
6.873420000E-03 2.370100000E+00 0.000000000E+00 1.803759991E+02
6.887980000E-03 2.368100000E+00 0.000000000E+00 1.799947154E+02
6.889580000E-03 2.367900000E+00 0.000000000E+00 1.799529144E+02
6.959130000E-03 2.357200000E+00 0.000000000E+00 1.781544532E+02
7.167750000E-03 2.322200000E+00 0.000000000E+00 1.729692023E+02
7.184000000E-03 2.319400000E+00 0.000000000E+00 1.725779510E+02
7.203040000E-03 2.316200000E+00 0.000000000E+00 1.721217708E+02
7.219360000E-03 2.313500000E+00 0.000000000E+00 1.717326744E+02
7.237040000E-03 2.310500000E+00 0.000000000E+00 1.713131335E+02
7.255970000E-03 2.307300000E+00 0.000000000E+00 1.708661971E+02
7.275940000E-03 2.304000000E+00 0.000000000E+00 1.703972270E+02
7.294090000E-03 2.300900000E+00 0.000000000E+00 1.699732249E+02
7.312250000E-03 2.297900000E+00 0.000000000E+00 1.695510958E+02
7.329150000E-03 2.295000000E+00 0.000000000E+00 1.691601345E+02
7.344180000E-03 2.292500000E+00 0.000000000E+00 1.688139452E+02
7.361820000E-03 2.289600000E+00 0.000000000E+00 1.684094422E+02
7.379470000E-03 2.286600000E+00 0.000000000E+00 1.680066455E+02
7.404800000E-03 2.282300000E+00 0.000000000E+00 1.674319360E+02
7.418660000E-03 2.278700000E+00 0.000000000E+00 1.671191293E+02
7.436400000E-03 2.274000000E+00 0.000000000E+00 1.667204561E+02
7.450040000E-03 2.270400000E+00 0.000000000E+00 1.664152139E+02
7.467680000E-03 2.265700000E+00 0.000000000E+00 1.660221113E+02
7.485320000E-03 2.261000000E+00 0.000000000E+00 1.656308615E+02
7.490540000E-03 2.259700000E+00 0.000000000E+00 1.655154368E+02
7.502960000E-03 2.256400000E+00 0.000000000E+00 1.652414514E+02
7.520610000E-03 2.251700000E+00 0.000000000E+00 1.648536488E+02
7.527410000E-03 2.249900000E+00 0.000000000E+00 1.647047258E+02
7.537650000E-03 2.247200000E+00 0.000000000E+00 1.644809722E+02
7.545850000E-03 2.245000000E+00 0.000000000E+00 1.643022324E+02
7.564290000E-03 2.240200000E+00 0.000000000E+00 1.639017013E+02
7.582720000E-03 2.235300000E+00 0.000000000E+00 1.635033339E+02
7.606230000E-03 2.229100000E+00 0.000000000E+00 1.629979635E+02
7.629740000E-03 2.222900000E+00 0.000000000E+00 1.624957076E+02
7.644850000E-03 2.218900000E+00 0.000000000E+00 1.621745358E+02
7.663310000E-03 2.214000000E+00 0.000000000E+00 1.617838767E+02
7.678400000E-03 2.210000000E+00 0.000000000E+00 1.614659304E+02
7.697260000E-03 2.205000000E+00 0.000000000E+00 1.610703029E+02
7.721820000E-03 2.198500000E+00 0.000000000E+00 1.605580032E+02
7.755220000E-03 2.189700000E+00 0.000000000E+00 1.598665157E+02
7.772670000E-03 2.185100000E+00 0.000000000E+00 1.595076081E+02
7.791520000E-03 2.180100000E+00 0.000000000E+00 1.591217118E+02
7.817580000E-03 2.173200000E+00 0.000000000E+00 1.585912776E+02
7.844350000E-03 2.166100000E+00 0.000000000E+00 1.580500615E+02
7.899130000E-03 2.150500000E+00 3.327990000E-07 1.569539937E+02
8.078930000E-03 2.025000000E+00 7.824710000E-03 1.534609162E+02
8.162580000E-03 1.912400000E+00 8.027660000E-02 1.518882510E+02
8.329330000E-03 1.986000000E+00 3.588970000E-01 1.488475063E+02
8.793830000E-03 2.174600000E+00 3.036640000E-01 1.409852135E+02
9.225710000E-03 2.167600000E+00 2.447870000E-01 1.343853210E+02
9.744290000E-03 2.111900000E+00 1.894770000E-01 1.272334875E+02
1.021820000E-02 2.028700000E+00 1.501670000E-01 1.213325243E+02
1.076800000E-02 1.903700000E+00 1.147660000E-01 1.151374443E+02
1.128580000E-02 1.779900000E+00 8.892130000E-02 1.098548619E+02
1.147990000E-02 1.732500000E+00 8.081940000E-02 1.079974564E+02
1.164980000E-02 1.690800000E+00 7.426250000E-02 1.064224279E+02
1.179840000E-02 1.654100000E+00 6.898930000E-02 1.050820450E+02
1.195360000E-02 1.615600000E+00 6.383410000E-02 1.037177085E+02
1.204230000E-02 1.591400000E+00 6.108830000E-02 1.029537547E+02
1.218540000E-02 1.548200000E+00 5.684330000E-02 1.017447109E+02
1.231660000E-02 1.508600000E+00 5.318100000E-02 1.006608967E+02
1.234920000E-02 1.498700000E+00 5.229810000E-02 1.003951673E+02
1.247520000E-02 1.460500000E+00 4.904170000E-02 9.938117225E+01
1.253140000E-02 1.443600000E+00 4.768700000E-02 9.893547409E+01
1.260820000E-02 1.420300000E+00 4.583120000E-02 9.833283101E+01
1.266590000E-02 1.402800000E+00 4.449340000E-02 9.788487198E+01
1.270910000E-02 1.389700000E+00 4.351530000E-02 9.755214767E+01
1.277400000E-02 1.370000000E+00 4.208750000E-02 9.705652106E+01
1.283890000E-02 1.350300000E+00 4.070320000E-02 9.656590518E+01
1.287430000E-02 1.339600000E+00 3.994650000E-02 9.630038138E+01
1.290210000E-02 1.331200000E+00 3.938790000E-02 9.609288410E+01
1.293370000E-02 1.321600000E+00 3.875160000E-02 9.585810712E+01
1.296530000E-02 1.312000000E+00 3.811530000E-02 9.562447456E+01
1.298670000E-02 1.305500000E+00 3.768460000E-02 9.546690075E+01
1.299690000E-02 1.302400000E+00 3.749140000E-02 9.539197809E+01
1.300220000E-02 1.300800000E+00 3.739160000E-02 9.535309409E+01
1.301820000E-02 1.295900000E+00 3.708870000E-02 9.523590051E+01
1.306620000E-02 1.281400000E+00 3.618010000E-02 9.488604185E+01
1.309820000E-02 1.271700000E+00 3.557440000E-02 9.465422730E+01
1.313020000E-02 1.261900000E+00 3.496860000E-02 9.442354267E+01
1.316220000E-02 1.250600000E+00 3.439520000E-02 9.419397973E+01
1.317620000E-02 1.245100000E+00 3.414870000E-02 9.409389657E+01
1.319710000E-02 1.236700000E+00 3.377890000E-02 9.394488183E+01
1.321810000E-02 1.228300000E+00 3.340910000E-02 9.379562872E+01
1.323810000E-02 1.220400000E+00 3.305560000E-02 9.365392315E+01
1.324820000E-02 1.216400000E+00 3.287880000E-02 9.358252442E+01
1.325820000E-02 1.212400000E+00 3.270210000E-02 9.351193978E+01
1.328220000E-02 1.202800000E+00 3.227880000E-02 9.334297029E+01
1.329820000E-02 1.196400000E+00 3.200960000E-02 9.323066280E+01
1.331020000E-02 1.191600000E+00 3.181170000E-02 9.314660937E+01
1.331620000E-02 1.189200000E+00 3.171270000E-02 9.310463946E+01
1.332070000E-02 1.187400000E+00 3.163850000E-02 9.307318684E+01
1.332140000E-02 1.187100000E+00 3.162620000E-02 9.306829613E+01
1.332200000E-02 1.186900000E+00 3.161690000E-02 9.306410449E+01
1.332320000E-02 1.186400000E+00 3.159800000E-02 9.305572235E+01
