# Data retrieved from https://www-nds.iaea.org/epdl97/za1to100.htm 03/01/2021
# Element, Co  (Z = 27) 
# Atomic weight, g mol-1 = 58.933 
# Nominal density, g cm-3 =  8.90000E+0 
# Relativistic correction estimate f_rel(5CL)*,  e atom-1 =  0 
# Nuclear Thomson correction f_NT*, e atom-1 =  0 
#    E [keV]      f1 [e atom-1]      f2 [e atom-1]    Wavelength [nm] 
1.000000000E-03 3.880100000E+00 0.000000000E+00 1.239800000E+03
1.125000000E-03 3.878700000E+00 0.000000000E+00 1.102044444E+03
1.265630000E-03 3.877000000E+00 0.000000000E+00 9.795911917E+02
1.423830000E-03 3.875100000E+00 0.000000000E+00 8.707500193E+02
1.601810000E-03 3.873000000E+00 0.000000000E+00 7.739994132E+02
1.802030000E-03 3.870700000E+00 0.000000000E+00 6.880018646E+02
2.027290000E-03 3.867600000E+00 0.000000000E+00 6.115553276E+02
2.275080000E-03 3.861500000E+00 0.000000000E+00 5.449478700E+02
2.491890000E-03 3.856200000E+00 0.000000000E+00 4.975340003E+02
2.681610000E-03 3.851600000E+00 0.000000000E+00 4.623341948E+02
2.847610000E-03 3.847500000E+00 0.000000000E+00 4.353826542E+02
2.992860000E-03 3.843900000E+00 0.000000000E+00 4.142525878E+02
3.119950000E-03 3.840800000E+00 0.000000000E+00 3.973781631E+02
3.231160000E-03 3.838000000E+00 0.000000000E+00 3.837012095E+02
3.328470000E-03 3.835600000E+00 0.000000000E+00 3.724834534E+02
3.413610000E-03 3.833600000E+00 0.000000000E+00 3.631932177E+02
3.488110000E-03 3.831700000E+00 0.000000000E+00 3.554360384E+02
3.553300000E-03 3.830100000E+00 0.000000000E+00 3.489150930E+02
3.667370000E-03 3.827300000E+00 0.000000000E+00 3.380624262E+02
3.752930000E-03 3.825200000E+00 0.000000000E+00 3.303552158E+02
3.817100000E-03 3.823600000E+00 0.000000000E+00 3.248015509E+02
3.865230000E-03 3.822500000E+00 0.000000000E+00 3.207571089E+02
3.901320000E-03 3.821600000E+00 0.000000000E+00 3.177898762E+02
3.928390000E-03 3.820900000E+00 0.000000000E+00 3.156000295E+02
3.948700000E-03 3.820400000E+00 0.000000000E+00 3.139767518E+02
3.979150000E-03 3.819700000E+00 0.000000000E+00 3.115740799E+02
4.000000000E-03 3.819100000E+00 0.000000000E+00 3.099500000E+02
4.009610000E-03 3.818600000E+00 0.000000000E+00 3.092071299E+02
4.019480000E-03 3.818100000E+00 0.000000000E+00 3.084478589E+02
4.029350000E-03 3.817500000E+00 0.000000000E+00 3.076923077E+02
4.039220000E-03 3.817000000E+00 0.000000000E+00 3.069404489E+02
4.049090000E-03 3.816400000E+00 0.000000000E+00 3.061922555E+02
4.051900000E-03 3.816200000E+00 0.000000000E+00 3.059799107E+02
4.061870000E-03 3.815700000E+00 0.000000000E+00 3.052288724E+02
4.071840000E-03 3.815100000E+00 0.000000000E+00 3.044815120E+02
4.081820000E-03 3.814600000E+00 0.000000000E+00 3.037370585E+02
4.091790000E-03 3.814000000E+00 0.000000000E+00 3.029969769E+02
4.101760000E-03 3.813500000E+00 0.000000000E+00 3.022604931E+02
4.109970000E-03 3.813000000E+00 0.000000000E+00 3.016567031E+02
4.118170000E-03 3.812600000E+00 0.000000000E+00 3.010560516E+02
4.124930000E-03 3.812200000E+00 0.000000000E+00 3.005626762E+02
4.128300000E-03 3.812000000E+00 0.000000000E+00 3.003173219E+02
4.131680000E-03 3.811800000E+00 0.000000000E+00 3.000716416E+02
4.139160000E-03 3.811400000E+00 0.000000000E+00 2.995293731E+02
4.144150000E-03 3.811100000E+00 0.000000000E+00 2.991687077E+02
4.147890000E-03 3.810900000E+00 0.000000000E+00 2.988989583E+02
4.149760000E-03 3.810800000E+00 0.000000000E+00 2.987642659E+02
4.151160000E-03 3.810700000E+00 0.000000000E+00 2.986635061E+02
4.151940000E-03 3.810700000E+00 0.000000000E+00 2.986073980E+02
4.152550000E-03 3.810600000E+00 0.000000000E+00 2.985635333E+02
4.161600000E-03 3.810100000E+00 0.000000000E+00 2.979142637E+02
4.164100000E-03 3.810000000E+00 0.000000000E+00 2.977354050E+02
4.171580000E-03 3.809600000E+00 0.000000000E+00 2.972015399E+02
4.175500000E-03 3.809400000E+00 0.000000000E+00 2.969225242E+02
4.181370000E-03 3.809000000E+00 0.000000000E+00 2.965056907E+02
4.187250000E-03 3.808700000E+00 0.000000000E+00 2.960893188E+02
4.194370000E-03 3.808300000E+00 0.000000000E+00 2.955867031E+02
4.201500000E-03 3.807900000E+00 0.000000000E+00 2.950850887E+02
4.211470000E-03 3.807400000E+00 0.000000000E+00 2.943865206E+02
4.221440000E-03 3.806800000E+00 0.000000000E+00 2.936912523E+02
4.231420000E-03 3.806200000E+00 0.000000000E+00 2.929985679E+02
4.246380000E-03 3.805400000E+00 0.000000000E+00 2.919663337E+02
4.251360000E-03 3.805100000E+00 0.000000000E+00 2.916243273E+02
4.255450000E-03 3.804900000E+00 0.000000000E+00 2.913440412E+02
4.263590000E-03 3.804500000E+00 0.000000000E+00 2.907878103E+02
4.271680000E-03 3.804000000E+00 0.000000000E+00 2.902370964E+02
4.287710000E-03 3.803100000E+00 0.000000000E+00 2.891520182E+02
4.303500000E-03 3.802200000E+00 0.000000000E+00 2.880910886E+02
4.319030000E-03 3.801400000E+00 0.000000000E+00 2.870551953E+02
4.334330000E-03 3.800500000E+00 0.000000000E+00 2.860419027E+02
4.364440000E-03 3.798800000E+00 0.000000000E+00 2.840685174E+02
4.393610000E-03 3.797200000E+00 0.000000000E+00 2.821825333E+02
4.421870000E-03 3.795600000E+00 0.000000000E+00 2.803791156E+02
4.449250000E-03 3.794100000E+00 0.000000000E+00 2.786537057E+02
4.475770000E-03 3.792600000E+00 0.000000000E+00 2.770026163E+02
4.501460000E-03 3.791200000E+00 0.000000000E+00 2.754217521E+02
4.526350000E-03 3.789800000E+00 0.000000000E+00 2.739072321E+02
4.550460000E-03 3.788500000E+00 0.000000000E+00 2.724559715E+02
4.573820000E-03 3.787200000E+00 0.000000000E+00 2.710644494E+02
4.596450000E-03 3.785900000E+00 0.000000000E+00 2.697299002E+02
4.771820000E-03 3.776100000E+00 0.000000000E+00 2.598170090E+02
4.837580000E-03 3.772500000E+00 0.000000000E+00 2.562851674E+02
4.895130000E-03 3.769300000E+00 0.000000000E+00 2.532721296E+02
4.945480000E-03 3.766500000E+00 0.000000000E+00 2.506935626E+02
4.989530000E-03 3.764000000E+00 0.000000000E+00 2.484803178E+02
5.028080000E-03 3.761900000E+00 0.000000000E+00 2.465752335E+02
5.061810000E-03 3.760000000E+00 0.000000000E+00 2.449321488E+02
5.091330000E-03 3.758300000E+00 0.000000000E+00 2.435120096E+02
5.142980000E-03 3.755500000E+00 0.000000000E+00 2.410664634E+02
5.181720000E-03 3.753300000E+00 0.000000000E+00 2.392641825E+02
5.210770000E-03 3.751700000E+00 0.000000000E+00 2.379302867E+02
5.232560000E-03 3.750500000E+00 0.000000000E+00 2.369394713E+02
5.248900000E-03 3.749600000E+00 0.000000000E+00 2.362018709E+02
5.261160000E-03 3.748900000E+00 0.000000000E+00 2.356514533E+02
5.279540000E-03 3.747900000E+00 0.000000000E+00 2.348310648E+02
5.288740000E-03 3.747300000E+00 0.000000000E+00 2.344225657E+02
5.293330000E-03 3.747100000E+00 0.000000000E+00 2.342192911E+02
5.297930000E-03 3.746800000E+00 0.000000000E+00 2.340159270E+02
5.310970000E-03 3.746100000E+00 0.000000000E+00 2.334413488E+02
5.324010000E-03 3.745400000E+00 0.000000000E+00 2.328695851E+02
5.337050000E-03 3.744600000E+00 0.000000000E+00 2.323006155E+02
5.350090000E-03 3.743900000E+00 0.000000000E+00 2.317344194E+02
5.363130000E-03 3.743200000E+00 0.000000000E+00 2.311709766E+02
5.369650000E-03 3.742800000E+00 0.000000000E+00 2.308902815E+02
5.376170000E-03 3.742500000E+00 0.000000000E+00 2.306102672E+02
5.382690000E-03 3.742100000E+00 0.000000000E+00 2.303309312E+02
5.389210000E-03 3.741700000E+00 0.000000000E+00 2.300522711E+02
5.395730000E-03 3.741400000E+00 0.000000000E+00 2.297742845E+02
5.402250000E-03 3.741000000E+00 0.000000000E+00 2.294969689E+02
5.408770000E-03 3.740700000E+00 0.000000000E+00 2.292203218E+02
5.412030000E-03 3.740500000E+00 0.000000000E+00 2.290822483E+02
5.415290000E-03 3.740300000E+00 0.000000000E+00 2.289443409E+02
5.418550000E-03 3.740100000E+00 0.000000000E+00 2.288065996E+02
5.423440000E-03 3.739800000E+00 0.000000000E+00 2.286002980E+02
5.425880000E-03 3.739700000E+00 0.000000000E+00 2.284974972E+02
5.427110000E-03 3.739600000E+00 0.000000000E+00 2.284457105E+02
5.427410000E-03 3.739600000E+00 0.000000000E+00 2.284330832E+02
5.427530000E-03 3.739600000E+00 0.000000000E+00 2.284280326E+02
5.427580000E-03 3.739600000E+00 0.000000000E+00 2.284259283E+02
5.427770000E-03 3.739600000E+00 0.000000000E+00 2.284179322E+02
5.428050000E-03 3.739600000E+00 0.000000000E+00 2.284061495E+02
5.428190000E-03 3.739600000E+00 0.000000000E+00 2.284002586E+02
5.428530000E-03 3.739500000E+00 0.000000000E+00 2.283859535E+02
5.429340000E-03 3.739500000E+00 0.000000000E+00 2.283518807E+02
5.441370000E-03 3.738800000E+00 0.000000000E+00 2.278470312E+02
5.444630000E-03 3.738700000E+00 0.000000000E+00 2.277106066E+02
5.454410000E-03 3.738100000E+00 0.000000000E+00 2.273023113E+02
5.460930000E-03 3.737700000E+00 0.000000000E+00 2.270309270E+02
5.467450000E-03 3.737400000E+00 0.000000000E+00 2.267601899E+02
5.473970000E-03 3.737000000E+00 0.000000000E+00 2.264900977E+02
5.480490000E-03 3.736700000E+00 0.000000000E+00 2.262206482E+02
5.487010000E-03 3.736300000E+00 0.000000000E+00 2.259518390E+02
5.493530000E-03 3.735900000E+00 0.000000000E+00 2.256836679E+02
5.506570000E-03 3.735200000E+00 0.000000000E+00 2.251492308E+02
5.519610000E-03 3.734500000E+00 0.000000000E+00 2.246173190E+02
5.532650000E-03 3.733700000E+00 0.000000000E+00 2.240879145E+02
5.545690000E-03 3.733000000E+00 0.000000000E+00 2.235609996E+02
5.558730000E-03 3.732300000E+00 0.000000000E+00 2.230365569E+02
5.566950000E-03 3.731800000E+00 0.000000000E+00 2.227072275E+02
5.583130000E-03 3.730900000E+00 0.000000000E+00 2.220618184E+02
5.598800000E-03 3.730100000E+00 0.000000000E+00 2.214403086E+02
5.629160000E-03 3.728400000E+00 0.000000000E+00 2.202460047E+02
5.657630000E-03 3.726800000E+00 0.000000000E+00 2.191376955E+02
5.684320000E-03 3.725300000E+00 0.000000000E+00 2.181087623E+02
5.734360000E-03 3.722500000E+00 0.000000000E+00 2.162054702E+02
5.778150000E-03 3.719800000E+00 0.000000000E+00 2.145669462E+02
5.854770000E-03 3.714700000E+00 0.000000000E+00 2.117589589E+02
5.912240000E-03 3.710900000E+00 0.000000000E+00 2.097005534E+02
6.084640000E-03 3.699500000E+00 0.000000000E+00 2.037589734E+02
6.095620000E-03 3.698700000E+00 0.000000000E+00 2.033919437E+02
6.125630000E-03 3.696700000E+00 0.000000000E+00 2.023955087E+02
6.140630000E-03 3.695700000E+00 0.000000000E+00 2.019011079E+02
6.155640000E-03 3.694700000E+00 0.000000000E+00 2.014087893E+02
6.162720000E-03 3.694300000E+00 0.000000000E+00 2.011774022E+02
6.170640000E-03 3.693800000E+00 0.000000000E+00 2.009191915E+02
6.193060000E-03 3.692300000E+00 0.000000000E+00 2.001918276E+02
6.208230000E-03 3.691300000E+00 0.000000000E+00 1.997026528E+02
6.223400000E-03 3.690300000E+00 0.000000000E+00 1.992158627E+02
6.234410000E-03 3.689500000E+00 0.000000000E+00 1.988640465E+02
6.247540000E-03 3.688700000E+00 0.000000000E+00 1.984461084E+02
6.260660000E-03 3.687800000E+00 0.000000000E+00 1.980302396E+02
6.284070000E-03 3.686200000E+00 0.000000000E+00 1.972925190E+02
6.299240000E-03 3.685200000E+00 0.000000000E+00 1.968173938E+02
6.314410000E-03 3.684200000E+00 0.000000000E+00 1.963445516E+02
6.329580000E-03 3.683200000E+00 0.000000000E+00 1.958739758E+02
6.344750000E-03 3.682200000E+00 0.000000000E+00 1.954056503E+02
6.362720000E-03 3.681000000E+00 0.000000000E+00 1.948537732E+02
6.380690000E-03 3.679800000E+00 0.000000000E+00 1.943050046E+02
6.390250000E-03 3.679200000E+00 0.000000000E+00 1.940143187E+02
6.395700000E-03 3.678800000E+00 0.000000000E+00 1.938489923E+02
6.405420000E-03 3.678200000E+00 0.000000000E+00 1.935548333E+02
6.420590000E-03 3.677200000E+00 0.000000000E+00 1.930975191E+02
6.435760000E-03 3.676200000E+00 0.000000000E+00 1.926423608E+02
6.450930000E-03 3.675200000E+00 0.000000000E+00 1.921893432E+02
6.465650000E-03 3.674200000E+00 0.000000000E+00 1.917517960E+02
6.466100000E-03 3.674200000E+00 0.000000000E+00 1.917384513E+02
6.504550000E-03 3.671600000E+00 0.000000000E+00 1.906050380E+02
6.571850000E-03 3.667200000E+00 0.000000000E+00 1.886531190E+02
6.773750000E-03 3.646900000E+00 0.000000000E+00 1.830300794E+02
6.778200000E-03 3.646400000E+00 0.000000000E+00 1.829099171E+02
6.801060000E-03 3.643800000E+00 0.000000000E+00 1.822951128E+02
6.811570000E-03 3.642700000E+00 0.000000000E+00 1.820138382E+02
6.828250000E-03 3.640800000E+00 0.000000000E+00 1.815692161E+02
6.834540000E-03 3.640100000E+00 0.000000000E+00 1.814021134E+02
6.844940000E-03 3.638900000E+00 0.000000000E+00 1.811264964E+02
6.851280000E-03 3.638200000E+00 0.000000000E+00 1.809588865E+02
6.868020000E-03 3.636400000E+00 0.000000000E+00 1.805178203E+02
6.888610000E-03 3.634000000E+00 0.000000000E+00 1.799782540E+02
6.922110000E-03 3.630300000E+00 0.000000000E+00 1.791072375E+02
6.938860000E-03 3.628400000E+00 0.000000000E+00 1.786748832E+02
6.951720000E-03 3.627000000E+00 0.000000000E+00 1.783443522E+02
6.968460000E-03 3.625100000E+00 0.000000000E+00 1.779159240E+02
6.985200000E-03 3.623200000E+00 0.000000000E+00 1.774895493E+02
7.005860000E-03 3.620900000E+00 0.000000000E+00 1.769661398E+02
7.045140000E-03 3.616500000E+00 0.000000000E+00 1.759794695E+02
7.056110000E-03 3.615300000E+00 0.000000000E+00 1.757058776E+02
7.068900000E-03 3.613900000E+00 0.000000000E+00 1.753879670E+02
7.078510000E-03 3.612800000E+00 0.000000000E+00 1.751498550E+02
7.086490000E-03 3.611900000E+00 0.000000000E+00 1.749526211E+02
7.099850000E-03 3.610400000E+00 0.000000000E+00 1.746234075E+02
7.102380000E-03 3.610100000E+00 0.000000000E+00 1.745612034E+02
7.111880000E-03 3.609000000E+00 0.000000000E+00 1.743280258E+02
7.123620000E-03 3.607700000E+00 0.000000000E+00 1.740407265E+02
7.134800000E-03 3.606500000E+00 0.000000000E+00 1.737680103E+02
7.135860000E-03 3.606400000E+00 0.000000000E+00 1.737421979E+02
7.141060000E-03 3.605800000E+00 0.000000000E+00 1.736156817E+02
7.152270000E-03 3.604500000E+00 0.000000000E+00 1.733435678E+02
7.158510000E-03 3.603800000E+00 0.000000000E+00 1.731924660E+02
7.169750000E-03 3.602600000E+00 0.000000000E+00 1.729209526E+02
7.187220000E-03 3.600600000E+00 0.000000000E+00 1.725006331E+02
7.228300000E-03 3.596000000E+00 0.000000000E+00 1.715202745E+02
7.245750000E-03 3.594100000E+00 0.000000000E+00 1.711072008E+02
7.260910000E-03 3.592400000E+00 0.000000000E+00 1.707499473E+02
7.278350000E-03 3.590400000E+00 0.000000000E+00 1.703408053E+02
7.295790000E-03 3.588500000E+00 0.000000000E+00 1.699336193E+02
7.315540000E-03 3.586200000E+00 0.000000000E+00 1.694748440E+02
7.350440000E-03 3.582300000E+00 0.000000000E+00 1.686701748E+02
7.363060000E-03 3.580900000E+00 0.000000000E+00 1.683810807E+02
7.380920000E-03 3.578900000E+00 0.000000000E+00 1.679736401E+02
7.396930000E-03 3.577100000E+00 0.000000000E+00 1.676100761E+02
7.410480000E-03 3.575600000E+00 0.000000000E+00 1.673036025E+02
7.427770000E-03 3.573700000E+00 0.000000000E+00 1.669141613E+02
7.449350000E-03 3.571300000E+00 0.000000000E+00 1.664306282E+02
7.526410000E-03 3.559300000E+00 9.679160000E-07 1.647266094E+02
7.550800000E-03 3.553200000E+00 5.632470000E-06 1.641945224E+02
7.572630000E-03 3.547000000E+00 2.379040000E-05 1.637211907E+02
7.603800000E-03 3.536900000E+00 1.502320000E-04 1.630500539E+02
7.665030000E-03 3.509100000E+00 2.779480000E-03 1.617475731E+02
7.750000000E-03 3.450400000E+00 3.881040000E-02 1.599741935E+02
7.843650000E-03 3.442700000E+00 1.468860000E-01 1.580641666E+02
7.923650000E-03 3.507100000E+00 1.959720000E-01 1.564682943E+02
8.024810000E-03 3.564600000E+00 1.927380000E-01 1.544958697E+02
8.421000000E-03 3.613200000E+00 1.469880000E-01 1.472271702E+02
8.830790000E-03 3.604700000E+00 1.102790000E-01 1.403951402E+02
9.185970000E-03 3.581700000E+00 8.539390000E-02 1.349666938E+02
9.392710000E-03 3.564900000E+00 7.333680000E-02 1.319959841E+02
9.492530000E-03 3.556100000E+00 6.805710000E-02 1.306079623E+02
9.545130000E-03 3.551400000E+00 6.545600000E-02 1.298882257E+02
9.648920000E-03 3.541800000E+00 6.046990000E-02 1.284910643E+02
9.700810000E-03 3.536900000E+00 5.807320000E-02 1.278037607E+02
9.752710000E-03 3.531900000E+00 5.582540000E-02 1.271236405E+02
9.776710000E-03 3.529600000E+00 5.478570000E-02 1.268115757E+02
9.800720000E-03 3.527300000E+00 5.374590000E-02 1.265009101E+02
9.824720000E-03 3.525000000E+00 5.275790000E-02 1.261918915E+02
9.842730000E-03 3.523200000E+00 5.202730000E-02 1.259609885E+02
9.856980000E-03 3.521800000E+00 5.144890000E-02 1.257788897E+02
9.864860000E-03 3.521000000E+00 5.112930000E-02 1.256784181E+02
9.883440000E-03 3.519200000E+00 5.037530000E-02 1.254421537E+02
9.899620000E-03 3.517600000E+00 4.971850000E-02 1.252371303E+02
9.915550000E-03 3.516000000E+00 4.911320000E-02 1.250359284E+02
9.930150000E-03 3.514600000E+00 4.855850000E-02 1.248520919E+02
9.944750000E-03 3.513100000E+00 4.800380000E-02 1.246687951E+02
9.957280000E-03 3.511800000E+00 4.752780000E-02 1.245119149E+02
9.963540000E-03 3.511200000E+00 4.728970000E-02 1.244336852E+02
9.969810000E-03 3.510600000E+00 4.705170000E-02 1.243554290E+02
9.982080000E-03 3.509400000E+00 4.658550000E-02 1.242025710E+02
9.994350000E-03 3.508100000E+00 4.611930000E-02 1.240500883E+02
1.001210000E-02 3.506400000E+00 4.546340000E-02 1.238301655E+02
1.001890000E-02 3.505700000E+00 4.522060000E-02 1.237461198E+02
1.004340000E-02 3.503200000E+00 4.434690000E-02 1.234442519E+02
1.006800000E-02 3.500700000E+00 4.347320000E-02 1.231426301E+02
1.009250000E-02 3.498200000E+00 4.259940000E-02 1.228436958E+02
1.010480000E-02 3.496900000E+00 4.218160000E-02 1.226941651E+02
1.011700000E-02 3.495700000E+00 4.176960000E-02 1.225462094E+02
1.012930000E-02 3.494400000E+00 4.135770000E-02 1.223974016E+02
1.014770000E-02 3.492500000E+00 4.073980000E-02 1.221754683E+02
1.015690000E-02 3.491600000E+00 4.043080000E-02 1.220648032E+02
1.016610000E-02 3.490700000E+00 4.012190000E-02 1.219543384E+02
1.017840000E-02 3.489400000E+00 3.970990000E-02 1.218069638E+02
1.018760000E-02 3.488400000E+00 3.940240000E-02 1.216969649E+02
1.019680000E-02 3.487500000E+00 3.911190000E-02 1.215871646E+02
1.020600000E-02 3.486500000E+00 3.882140000E-02 1.214775622E+02
1.020830000E-02 3.486300000E+00 3.874870000E-02 1.214501925E+02
1.020920000E-02 3.486200000E+00 3.872150000E-02 1.214394860E+02
1.021120000E-02 3.486000000E+00 3.865600000E-02 1.214157004E+02
1.021320000E-02 3.485800000E+00 3.859340000E-02 1.213919242E+02
1.021420000E-02 3.485700000E+00 3.856210000E-02 1.213800396E+02
1.021520000E-02 3.485600000E+00 3.853080000E-02 1.213681573E+02
1.023970000E-02 3.483000000E+00 3.775610000E-02 1.210777660E+02
1.024590000E-02 3.482400000E+00 3.756240000E-02 1.210044994E+02
1.026430000E-02 3.480500000E+00 3.698140000E-02 1.207875842E+02
1.027940000E-02 3.478900000E+00 3.650460000E-02 1.206101523E+02
1.028880000E-02 3.478000000E+00 3.622560000E-02 1.204999611E+02
1.030110000E-02 3.476700000E+00 3.586290000E-02 1.203560785E+02
1.031950000E-02 3.474700000E+00 3.531880000E-02 1.201414797E+02
1.033790000E-02 3.472800000E+00 3.477480000E-02 1.199276449E+02
1.036240000E-02 3.470300000E+00 3.404930000E-02 1.196440979E+02
1.038700000E-02 3.467700000E+00 3.333950000E-02 1.193607394E+02
1.040640000E-02 3.465600000E+00 3.280130000E-02 1.191382226E+02
1.041150000E-02 3.465100000E+00 3.265810000E-02 1.190798636E+02
1.043100000E-02 3.463100000E+00 3.211700000E-02 1.188572524E+02
1.045560000E-02 3.460500000E+00 3.143270000E-02 1.185776043E+02
1.046060000E-02 3.459900000E+00 3.129530000E-02 1.185209261E+02
1.048030000E-02 3.457900000E+00 3.077430000E-02 1.182981403E+02
1.050490000E-02 3.455200000E+00 3.013090000E-02 1.180211140E+02
1.053840000E-02 3.451700000E+00 2.925620000E-02 1.176459425E+02
1.060130000E-02 3.444500000E+00 2.768040000E-02 1.169479215E+02
1.065620000E-02 3.436700000E+00 2.634960000E-02 1.163454139E+02
1.075240000E-02 3.421600000E+00 2.415250000E-02 1.153044902E+02
1.104100000E-02 3.373900000E+00 1.838560000E-02 1.122905534E+02
1.109540000E-02 3.364900000E+00 1.742180000E-02 1.117400004E+02
