# Data retrieved from https://www-nds.iaea.org/epdl97/za1to100.htm 03/01/2021
# Element, Cs  (Z = 55) 
# Atomic weight, g mol-1 = 132.91 
# Nominal density, g cm-3 =  1.87300E+0 
# Relativistic correction estimate f_rel(5CL)*,  e atom-1 =  0 
# Nuclear Thomson correction f_NT*, e atom-1 =  0 
#    E [keV]      f1 [e atom-1]      f2 [e atom-1]    Wavelength [nm] 
1.000000000E-03 1.354970000E+01 0.000000000E+00 1.239800000E+03
1.030280000E-03 1.354900000E+01 0.000000000E+00 1.203362193E+03
1.056780000E-03 1.354840000E+01 0.000000000E+00 1.173186472E+03
1.079960000E-03 1.354790000E+01 0.000000000E+00 1.148005482E+03
1.100250000E-03 1.354740000E+01 0.000000000E+00 1.126834810E+03
1.118000000E-03 1.354700000E+01 0.000000000E+00 1.108944544E+03
1.133530000E-03 1.354670000E+01 0.000000000E+00 1.093751378E+03
1.160710000E-03 1.354600000E+01 0.000000000E+00 1.068139329E+03
1.181100000E-03 1.354560000E+01 0.000000000E+00 1.049699433E+03
1.196390000E-03 1.354520000E+01 0.000000000E+00 1.036284155E+03
1.207850000E-03 1.354500000E+01 0.000000000E+00 1.026451960E+03
1.216450000E-03 1.354480000E+01 0.000000000E+00 1.019195199E+03
1.222900000E-03 1.354460000E+01 0.000000000E+00 1.013819609E+03
1.227740000E-03 1.354450000E+01 0.000000000E+00 1.009822927E+03
1.235000000E-03 1.354430000E+01 0.000000000E+00 1.003886640E+03
1.238630000E-03 1.354430000E+01 0.000000000E+00 1.000944592E+03
1.240440000E-03 1.354420000E+01 0.000000000E+00 9.994840540E+02
1.242250000E-03 1.354420000E+01 0.000000000E+00 9.980277722E+02
1.245310000E-03 1.354410000E+01 0.000000000E+00 9.955753989E+02
1.248370000E-03 1.354400000E+01 0.000000000E+00 9.931350481E+02
1.251430000E-03 1.354400000E+01 0.000000000E+00 9.907066316E+02
1.254480000E-03 1.354390000E+01 0.000000000E+00 9.882979402E+02
1.257540000E-03 1.354380000E+01 0.000000000E+00 9.858930929E+02
1.260600000E-03 1.354370000E+01 0.000000000E+00 9.834999207E+02
1.262130000E-03 1.354370000E+01 0.000000000E+00 9.823076862E+02
1.263660000E-03 1.354370000E+01 0.000000000E+00 9.811183388E+02
1.265190000E-03 1.354360000E+01 0.000000000E+00 9.799318679E+02
1.266710000E-03 1.354360000E+01 0.000000000E+00 9.787559899E+02
1.268240000E-03 1.354360000E+01 0.000000000E+00 9.775752224E+02
1.269770000E-03 1.354350000E+01 0.000000000E+00 9.763973003E+02
1.272830000E-03 1.354350000E+01 0.000000000E+00 9.740499517E+02
1.273590000E-03 1.354340000E+01 0.000000000E+00 9.734686987E+02
1.275310000E-03 1.354340000E+01 0.000000000E+00 9.721557896E+02
1.275600000E-03 1.354340000E+01 0.000000000E+00 9.719347758E+02
1.276080000E-03 1.354340000E+01 0.000000000E+00 9.715691806E+02
1.276440000E-03 1.354340000E+01 0.000000000E+00 9.712951647E+02
1.276750000E-03 1.354340000E+01 0.000000000E+00 9.710593303E+02
1.277020000E-03 1.354340000E+01 0.000000000E+00 9.708540195E+02
1.279330000E-03 1.354330000E+01 0.000000000E+00 9.691010138E+02
1.280000000E-03 1.354330000E+01 0.000000000E+00 9.685937500E+02
1.281000000E-03 1.354330000E+01 0.000000000E+00 9.678376269E+02
1.282000000E-03 1.354330000E+01 0.000000000E+00 9.670826833E+02
1.282770000E-03 1.354320000E+01 0.000000000E+00 9.665021789E+02
1.283910000E-03 1.354320000E+01 0.000000000E+00 9.656440093E+02
1.285060000E-03 1.354320000E+01 0.000000000E+00 9.647798546E+02
1.286590000E-03 1.354320000E+01 0.000000000E+00 9.636325481E+02
1.287350000E-03 1.354310000E+01 0.000000000E+00 9.630636579E+02
1.288120000E-03 1.354310000E+01 0.000000000E+00 9.624879670E+02
1.290410000E-03 1.354310000E+01 0.000000000E+00 9.607799072E+02
1.291180000E-03 1.354300000E+01 0.000000000E+00 9.602069425E+02
1.293470000E-03 1.354300000E+01 0.000000000E+00 9.585069619E+02
1.293850000E-03 1.354300000E+01 0.000000000E+00 9.582254512E+02
1.294230000E-03 1.354300000E+01 0.000000000E+00 9.579441058E+02
1.294620000E-03 1.354300000E+01 0.000000000E+00 9.576555283E+02
1.295950000E-03 1.354290000E+01 0.000000000E+00 9.566727111E+02
1.296290000E-03 1.354290000E+01 0.000000000E+00 9.564217883E+02
1.296790000E-03 1.354290000E+01 0.000000000E+00 9.560530232E+02
1.297040000E-03 1.354290000E+01 0.000000000E+00 9.558687473E+02
1.297290000E-03 1.354290000E+01 0.000000000E+00 9.556845424E+02
1.300350000E-03 1.354280000E+01 0.000000000E+00 9.534356135E+02
1.301880000E-03 1.354280000E+01 0.000000000E+00 9.523151135E+02
1.302640000E-03 1.354280000E+01 0.000000000E+00 9.517595038E+02
1.303410000E-03 1.354280000E+01 0.000000000E+00 9.511972442E+02
1.303840000E-03 1.354280000E+01 0.000000000E+00 9.508835440E+02
1.304640000E-03 1.354270000E+01 0.000000000E+00 9.503004660E+02
1.310260000E-03 1.354260000E+01 0.000000000E+00 9.462244135E+02
1.313470000E-03 1.354250000E+01 0.000000000E+00 9.439119279E+02
1.316670000E-03 1.354250000E+01 0.000000000E+00 9.416178693E+02
1.319880000E-03 1.354240000E+01 0.000000000E+00 9.393278177E+02
1.321490000E-03 1.354240000E+01 0.000000000E+00 9.381834142E+02
1.323090000E-03 1.354230000E+01 0.000000000E+00 9.370488780E+02
1.324700000E-03 1.354230000E+01 0.000000000E+00 9.359100174E+02
1.326300000E-03 1.354220000E+01 0.000000000E+00 9.347809696E+02
1.327910000E-03 1.354220000E+01 0.000000000E+00 9.336476117E+02
1.328710000E-03 1.354220000E+01 0.000000000E+00 9.330854739E+02
1.331120000E-03 1.354210000E+01 0.000000000E+00 9.313961176E+02
1.331920000E-03 1.354210000E+01 0.000000000E+00 9.308366869E+02
1.332320000E-03 1.354210000E+01 0.000000000E+00 9.305572235E+02
1.333120000E-03 1.354210000E+01 0.000000000E+00 9.299987998E+02
1.334530000E-03 1.354210000E+01 0.000000000E+00 9.290162080E+02
1.334880000E-03 1.354200000E+01 0.000000000E+00 9.287726238E+02
1.335140000E-03 1.354200000E+01 0.000000000E+00 9.285917582E+02
1.335540000E-03 1.354200000E+01 0.000000000E+00 9.283136409E+02
1.335730000E-03 1.354200000E+01 0.000000000E+00 9.281815936E+02
1.336130000E-03 1.354200000E+01 0.000000000E+00 9.279037219E+02
1.339140000E-03 1.354190000E+01 0.000000000E+00 9.258180623E+02
1.339940000E-03 1.354190000E+01 0.000000000E+00 9.252653104E+02
1.342350000E-03 1.354190000E+01 0.000000000E+00 9.236041271E+02
1.343950000E-03 1.354180000E+01 0.000000000E+00 9.225045575E+02
1.345560000E-03 1.354180000E+01 0.000000000E+00 9.214007551E+02
1.347160000E-03 1.354180000E+01 0.000000000E+00 9.203064224E+02
1.348770000E-03 1.354170000E+01 0.000000000E+00 9.192078709E+02
1.350370000E-03 1.354170000E+01 0.000000000E+00 9.181187378E+02
1.351980000E-03 1.354170000E+01 0.000000000E+00 9.170253998E+02
1.355190000E-03 1.354160000E+01 0.000000000E+00 9.148532678E+02
1.358390000E-03 1.354150000E+01 0.000000000E+00 9.126981206E+02
1.361600000E-03 1.354140000E+01 0.000000000E+00 9.105464160E+02
1.364810000E-03 1.354140000E+01 0.000000000E+00 9.084048329E+02
1.368020000E-03 1.354130000E+01 0.000000000E+00 9.062733001E+02
1.370520000E-03 1.354120000E+01 0.000000000E+00 9.046201442E+02
1.375430000E-03 1.354110000E+01 0.000000000E+00 9.013908378E+02
1.380200000E-03 1.354100000E+01 0.000000000E+00 8.982756122E+02
1.384810000E-03 1.354090000E+01 0.000000000E+00 8.952852738E+02
1.393750000E-03 1.354070000E+01 0.000000000E+00 8.895426009E+02
1.402130000E-03 1.354050000E+01 0.000000000E+00 8.842261417E+02
1.409980000E-03 1.354030000E+01 0.000000000E+00 8.793032525E+02
1.424710000E-03 1.354000000E+01 0.000000000E+00 8.702121835E+02
1.437600000E-03 1.353970000E+01 0.000000000E+00 8.624095715E+02
1.460150000E-03 1.353920000E+01 0.000000000E+00 8.490908468E+02
1.477070000E-03 1.353880000E+01 0.000000000E+00 8.393644174E+02
1.502440000E-03 1.353820000E+01 0.000000000E+00 8.251910226E+02
1.527810000E-03 1.353760000E+01 0.000000000E+00 8.114883395E+02
1.531580000E-03 1.353750000E+01 0.000000000E+00 8.094908526E+02
1.535340000E-03 1.353740000E+01 0.000000000E+00 8.075084346E+02
1.539100000E-03 1.353740000E+01 0.000000000E+00 8.055357027E+02
1.542860000E-03 1.353730000E+01 0.000000000E+00 8.035725860E+02
1.546620000E-03 1.353720000E+01 0.000000000E+00 8.016190144E+02
1.550380000E-03 1.353710000E+01 0.000000000E+00 7.996749184E+02
1.554140000E-03 1.353700000E+01 0.000000000E+00 7.977402293E+02
1.557900000E-03 1.353690000E+01 0.000000000E+00 7.958148790E+02
1.561660000E-03 1.353680000E+01 0.000000000E+00 7.938988000E+02
1.565420000E-03 1.353680000E+01 0.000000000E+00 7.919919255E+02
1.569180000E-03 1.353670000E+01 0.000000000E+00 7.900941893E+02
1.572940000E-03 1.353660000E+01 0.000000000E+00 7.882055260E+02
1.576700000E-03 1.353650000E+01 0.000000000E+00 7.863258705E+02
1.583950000E-03 1.353630000E+01 0.000000000E+00 7.827267275E+02
1.587980000E-03 1.353620000E+01 0.000000000E+00 7.807403116E+02
1.591750000E-03 1.353610000E+01 0.000000000E+00 7.788911575E+02
1.595650000E-03 1.353610000E+01 0.000000000E+00 7.769874346E+02
1.599550000E-03 1.353600000E+01 0.000000000E+00 7.750929949E+02
1.603450000E-03 1.353590000E+01 0.000000000E+00 7.732077707E+02
1.607350000E-03 1.353580000E+01 0.000000000E+00 7.713316950E+02
1.611240000E-03 1.353570000E+01 0.000000000E+00 7.694694769E+02
1.615140000E-03 1.353560000E+01 0.000000000E+00 7.676114764E+02
1.619040000E-03 1.353550000E+01 0.000000000E+00 7.657624271E+02
1.622940000E-03 1.353540000E+01 0.000000000E+00 7.639222645E+02
1.626840000E-03 1.353530000E+01 0.000000000E+00 7.620909247E+02
1.630740000E-03 1.353530000E+01 0.000000000E+00 7.602683444E+02
1.634640000E-03 1.353520000E+01 0.000000000E+00 7.584544609E+02
1.642430000E-03 1.353500000E+01 0.000000000E+00 7.548571324E+02
1.646330000E-03 1.353490000E+01 0.000000000E+00 7.530689473E+02
1.650230000E-03 1.353480000E+01 0.000000000E+00 7.512892142E+02
1.654130000E-03 1.353470000E+01 0.000000000E+00 7.495178734E+02
1.658030000E-03 1.353460000E+01 0.000000000E+00 7.477548657E+02
1.661930000E-03 1.353450000E+01 0.000000000E+00 7.460001324E+02
1.712820000E-03 1.353340000E+01 0.000000000E+00 7.238355461E+02
1.801880000E-03 1.353130000E+01 0.000000000E+00 6.880591382E+02
1.935470000E-03 1.352830000E+01 0.000000000E+00 6.405679241E+02
2.069060000E-03 1.352310000E+01 0.000000000E+00 5.992093028E+02
2.074160000E-03 1.352290000E+01 0.000000000E+00 5.977359509E+02
2.079250000E-03 1.352260000E+01 0.000000000E+00 5.962726945E+02
2.084340000E-03 1.352230000E+01 0.000000000E+00 5.948165846E+02
2.089430000E-03 1.352210000E+01 0.000000000E+00 5.933675691E+02
2.094530000E-03 1.352180000E+01 0.000000000E+00 5.919227703E+02
2.099620000E-03 1.352150000E+01 0.000000000E+00 5.904878026E+02
2.104710000E-03 1.352130000E+01 0.000000000E+00 5.890597755E+02
2.109800000E-03 1.352100000E+01 0.000000000E+00 5.876386387E+02
2.114900000E-03 1.352070000E+01 0.000000000E+00 5.862215708E+02
2.119990000E-03 1.352040000E+01 0.000000000E+00 5.848140793E+02
2.125080000E-03 1.352020000E+01 0.000000000E+00 5.834133303E+02
2.130180000E-03 1.351990000E+01 0.000000000E+00 5.820165432E+02
2.135270000E-03 1.351960000E+01 0.000000000E+00 5.806291476E+02
2.145450000E-03 1.351910000E+01 0.000000000E+00 5.778741057E+02
2.150550000E-03 1.351880000E+01 0.000000000E+00 5.765036851E+02
2.155640000E-03 1.351860000E+01 0.000000000E+00 5.751424171E+02
2.160730000E-03 1.351830000E+01 0.000000000E+00 5.737875625E+02
2.165820000E-03 1.351800000E+01 0.000000000E+00 5.724390762E+02
2.170920000E-03 1.351780000E+01 0.000000000E+00 5.710942826E+02
2.313910000E-03 1.351020000E+01 0.000000000E+00 5.358030347E+02
2.385400000E-03 1.350640000E+01 0.000000000E+00 5.197451161E+02
2.421150000E-03 1.350450000E+01 0.000000000E+00 5.120707102E+02
2.439020000E-03 1.350360000E+01 0.000000000E+00 5.083189150E+02
2.456900000E-03 1.350260000E+01 0.000000000E+00 5.046196426E+02
2.462940000E-03 1.350230000E+01 0.000000000E+00 5.033821368E+02
2.468990000E-03 1.350200000E+01 0.000000000E+00 5.021486519E+02
2.475040000E-03 1.350170000E+01 0.000000000E+00 5.009211972E+02
2.478870000E-03 1.350150000E+01 0.000000000E+00 5.001472445E+02
2.481090000E-03 1.350140000E+01 0.000000000E+00 4.996997287E+02
2.487130000E-03 1.350100000E+01 0.000000000E+00 4.984862070E+02
2.491070000E-03 1.350080000E+01 0.000000000E+00 4.976977765E+02
2.497170000E-03 1.350050000E+01 0.000000000E+00 4.964820176E+02
2.503270000E-03 1.350020000E+01 0.000000000E+00 4.952721840E+02
2.506320000E-03 1.350000000E+01 0.000000000E+00 4.946694756E+02
2.510900000E-03 1.349980000E+01 0.000000000E+00 4.937671751E+02
2.515470000E-03 1.349950000E+01 0.000000000E+00 4.928701197E+02
2.519910000E-03 1.349930000E+01 0.000000000E+00 4.920016985E+02
2.524350000E-03 1.349910000E+01 0.000000000E+00 4.911363321E+02
2.529460000E-03 1.349880000E+01 0.000000000E+00 4.901441414E+02
2.533780000E-03 1.349860000E+01 0.000000000E+00 4.893084640E+02
2.539880000E-03 1.349830000E+01 0.000000000E+00 4.881332976E+02
2.545980000E-03 1.349790000E+01 0.000000000E+00 4.869637625E+02
2.553650000E-03 1.349750000E+01 0.000000000E+00 4.855011454E+02
2.559700000E-03 1.349720000E+01 0.000000000E+00 4.843536352E+02
2.565750000E-03 1.349690000E+01 0.000000000E+00 4.832115366E+02
2.570390000E-03 1.349660000E+01 0.000000000E+00 4.823392559E+02
2.576490000E-03 1.349630000E+01 0.000000000E+00 4.811972878E+02
2.582590000E-03 1.349600000E+01 0.000000000E+00 4.800607142E+02
2.588690000E-03 1.349570000E+01 0.000000000E+00 4.789294972E+02
2.598540000E-03 1.349520000E+01 0.000000000E+00 4.771140717E+02
2.600890000E-03 1.349500000E+01 0.000000000E+00 4.766829816E+02
2.605890000E-03 1.349480000E+01 0.000000000E+00 4.757683555E+02
2.610910000E-03 1.349450000E+01 0.000000000E+00 4.748535951E+02
2.617090000E-03 1.349420000E+01 0.000000000E+00 4.737322752E+02
2.618170000E-03 1.349410000E+01 0.000000000E+00 4.735368597E+02
2.623270000E-03 1.349390000E+01 0.000000000E+00 4.726162385E+02
2.629460000E-03 1.349350000E+01 0.000000000E+00 4.715036547E+02
2.635640000E-03 1.349320000E+01 0.000000000E+00 4.703980817E+02
2.671690000E-03 1.349130000E+01 0.000000000E+00 4.640508442E+02
2.924030000E-03 1.347800000E+01 0.000000000E+00 4.240038577E+02
2.934300000E-03 1.347740000E+01 0.000000000E+00 4.225198514E+02
2.938420000E-03 1.347720000E+01 0.000000000E+00 4.219274304E+02
2.945620000E-03 1.347680000E+01 0.000000000E+00 4.208961102E+02
2.948740000E-03 1.347670000E+01 0.000000000E+00 4.204507688E+02
2.952820000E-03 1.347640000E+01 0.000000000E+00 4.198698194E+02
2.955960000E-03 1.347630000E+01 0.000000000E+00 4.194238082E+02
2.963190000E-03 1.347590000E+01 0.000000000E+00 4.184004401E+02
2.971750000E-03 1.347540000E+01 0.000000000E+00 4.171952553E+02
2.980280000E-03 1.347500000E+01 0.000000000E+00 4.160011811E+02
2.988800000E-03 1.347450000E+01 0.000000000E+00 4.148153105E+02
2.993800000E-03 1.347430000E+01 0.000000000E+00 4.141225199E+02
2.999300000E-03 1.347400000E+01 0.000000000E+00 4.133631181E+02
3.006520000E-03 1.347360000E+01 0.000000000E+00 4.123704482E+02
3.013740000E-03 1.347320000E+01 0.000000000E+00 4.113825347E+02
3.022700000E-03 1.347270000E+01 0.000000000E+00 4.101630992E+02
3.039180000E-03 1.347190000E+01 0.000000000E+00 4.079389835E+02
3.042630000E-03 1.347170000E+01 0.000000000E+00 4.074764266E+02
3.049850000E-03 1.347130000E+01 0.000000000E+00 4.065117957E+02
3.057080000E-03 1.347090000E+01 0.000000000E+00 4.055503945E+02
3.064300000E-03 1.347050000E+01 0.000000000E+00 4.045948504E+02
3.067970000E-03 1.347040000E+01 0.000000000E+00 4.041108616E+02
3.078740000E-03 1.346980000E+01 0.000000000E+00 4.026972073E+02
3.080520000E-03 1.346970000E+01 0.000000000E+00 4.024645190E+02
3.087640000E-03 1.346930000E+01 0.000000000E+00 4.015364485E+02
3.154440000E-03 1.346580000E+01 0.000000000E+00 3.930333118E+02
3.160050000E-03 1.346550000E+01 0.000000000E+00 3.923355643E+02
3.169970000E-03 1.346500000E+01 0.000000000E+00 3.911078023E+02
3.175610000E-03 1.346470000E+01 0.000000000E+00 3.904131805E+02
3.183380000E-03 1.346430000E+01 0.000000000E+00 3.894602592E+02
3.191160000E-03 1.346380000E+01 0.000000000E+00 3.885107610E+02
3.198940000E-03 1.346340000E+01 0.000000000E+00 3.875658812E+02
3.216550000E-03 1.346250000E+01 0.000000000E+00 3.854440316E+02
3.224320000E-03 1.346210000E+01 0.000000000E+00 3.845151846E+02
3.230050000E-03 1.346180000E+01 0.000000000E+00 3.838330676E+02
3.237830000E-03 1.346140000E+01 0.000000000E+00 3.829107767E+02
3.245610000E-03 1.346100000E+01 0.000000000E+00 3.819929073E+02
3.255370000E-03 1.346050000E+01 0.000000000E+00 3.808476456E+02
3.276720000E-03 1.345930000E+01 0.000000000E+00 3.783661710E+02
3.284500000E-03 1.345890000E+01 0.000000000E+00 3.774699345E+02
3.288560000E-03 1.345870000E+01 0.000000000E+00 3.770039166E+02
3.292280000E-03 1.345850000E+01 0.000000000E+00 3.765779338E+02
3.300050000E-03 1.345810000E+01 0.000000000E+00 3.756912774E+02
3.304750000E-03 1.345780000E+01 0.000000000E+00 3.751569710E+02
3.309720000E-03 1.345760000E+01 0.000000000E+00 3.745936212E+02
3.312840000E-03 1.345740000E+01 0.000000000E+00 3.742408326E+02
3.315610000E-03 1.345730000E+01 0.000000000E+00 3.739281761E+02
3.320930000E-03 1.345700000E+01 0.000000000E+00 3.733291578E+02
3.329030000E-03 1.345660000E+01 0.000000000E+00 3.724207952E+02
3.353310000E-03 1.345530000E+01 0.000000000E+00 3.697242426E+02
3.361410000E-03 1.345480000E+01 0.000000000E+00 3.688333170E+02
3.369500000E-03 1.345440000E+01 0.000000000E+00 3.679477667E+02
3.377590000E-03 1.345400000E+01 0.000000000E+00 3.670664586E+02
3.385690000E-03 1.345360000E+01 0.000000000E+00 3.661882807E+02
3.401880000E-03 1.345270000E+01 0.000000000E+00 3.644455419E+02
3.410150000E-03 1.345230000E+01 0.000000000E+00 3.635617202E+02
3.418440000E-03 1.345180000E+01 0.000000000E+00 3.626800529E+02
3.426740000E-03 1.345140000E+01 0.000000000E+00 3.618015957E+02
3.443320000E-03 1.345050000E+01 0.000000000E+00 3.600594775E+02
3.459900000E-03 1.344960000E+01 0.000000000E+00 3.583340559E+02
3.471040000E-03 1.344910000E+01 0.000000000E+00 3.571840140E+02
3.494210000E-03 1.344780000E+01 0.000000000E+00 3.548155377E+02
3.583620000E-03 1.344110000E+01 6.030250000E-06 3.459630206E+02
3.619320000E-03 1.343600000E+01 2.753820000E-04 3.425505344E+02
3.677820000E-03 1.342440000E+01 8.945870000E-03 3.371018701E+02
3.721460000E-03 1.342670000E+01 2.127420000E-02 3.331488179E+02
3.735770000E-03 1.342930000E+01 2.320400000E-02 3.318726795E+02
3.761430000E-03 1.343330000E+01 2.417660000E-02 3.296086861E+02
3.961980000E-03 1.343810000E+01 1.944380000E-02 3.129243459E+02
4.168380000E-03 1.342670000E+01 1.537000000E-02 2.974296969E+02
4.375850000E-03 1.341120000E+01 1.221120000E-02 2.833278106E+02
4.596430000E-03 1.339360000E+01 9.630180000E-03 2.697310739E+02
4.827810000E-03 1.337440000E+01 7.560830000E-03 2.568038096E+02
5.043510000E-03 1.335620000E+01 6.076360000E-03 2.458208668E+02
5.313400000E-03 1.333320000E+01 4.678300000E-03 2.333345880E+02
5.591480000E-03 1.330940000E+01 3.618500000E-03 2.217302038E+02
5.850550000E-03 1.328720000E+01 2.895540000E-03 2.119117006E+02
6.000000000E-03 1.327440000E+01 2.567760000E-03 2.066333333E+02
6.270000000E-03 1.324030000E+01 2.098110000E-03 1.977352472E+02
6.373230000E-03 1.322730000E+01 1.956260000E-03 1.945324427E+02
6.653900000E-03 1.319190000E+01 1.648020000E-03 1.863268159E+02
7.000000000E-03 1.314840000E+01 1.391770000E-03 1.771142857E+02
7.387500000E-03 1.309970000E+01 1.222990000E-03 1.678240271E+02
7.845000000E-03 1.302770000E+01 1.129160000E-03 1.580369662E+02
8.222430000E-03 1.296310000E+01 1.109180000E-03 1.507826762E+02
8.609940000E-03 1.289120000E+01 1.124050000E-03 1.439963577E+02
9.061190000E-03 1.280040000E+01 1.172200000E-03 1.368252956E+02
9.481530000E-03 1.270980000E+01 1.234870000E-03 1.307594871E+02
9.885530000E-03 1.260780000E+01 1.305150000E-03 1.254156327E+02
1.017110000E-02 1.253520000E+01 1.361150000E-03 1.218943870E+02
1.045270000E-02 1.245220000E+01 1.416370000E-03 1.186105025E+02
1.094550000E-02 1.229670000E+01 1.512990000E-03 1.132702937E+02
1.131510000E-02 1.216580000E+01 1.585460000E-03 1.095703971E+02
