# Data retrieved from https://www-nds.iaea.org/epdl97/za1to100.htm 03/01/2021
# Element, Er  (Z = 68) 
# Atomic weight, g mol-1 = 167.26 
# Nominal density, g cm-3 =  9.06600E+0 
# Relativistic correction estimate f_rel(5CL)*,  e atom-1 =  0 
# Nuclear Thomson correction f_NT*, e atom-1 =  0 
#    E [keV]      f1 [e atom-1]      f2 [e atom-1]    Wavelength [nm] 
1.000000000E-03 9.636700000E+00 0.000000000E+00 1.239800000E+03
1.087550000E-03 9.635300000E+00 0.000000000E+00 1.139993564E+03
1.175110000E-03 9.633800000E+00 0.000000000E+00 1.055050166E+03
1.178000000E-03 9.633800000E+00 0.000000000E+00 1.052461800E+03
1.180890000E-03 9.633700000E+00 0.000000000E+00 1.049886103E+03
1.183780000E-03 9.633700000E+00 0.000000000E+00 1.047322982E+03
1.186680000E-03 9.633600000E+00 0.000000000E+00 1.044763542E+03
1.189570000E-03 9.633600000E+00 0.000000000E+00 1.042225342E+03
1.192460000E-03 9.633500000E+00 0.000000000E+00 1.039699445E+03
1.195350000E-03 9.633500000E+00 0.000000000E+00 1.037185761E+03
1.198250000E-03 9.633400000E+00 0.000000000E+00 1.034675569E+03
1.201140000E-03 9.633400000E+00 0.000000000E+00 1.032186090E+03
1.204030000E-03 9.633300000E+00 0.000000000E+00 1.029708562E+03
1.206920000E-03 9.633300000E+00 0.000000000E+00 1.027242899E+03
1.209810000E-03 9.633200000E+00 0.000000000E+00 1.024789016E+03
1.212710000E-03 9.633200000E+00 0.000000000E+00 1.022338399E+03
1.218490000E-03 9.633100000E+00 0.000000000E+00 1.017488859E+03
1.221380000E-03 9.633000000E+00 0.000000000E+00 1.015081301E+03
1.224280000E-03 9.633000000E+00 0.000000000E+00 1.012676839E+03
1.227170000E-03 9.632900000E+00 0.000000000E+00 1.010291973E+03
1.230060000E-03 9.632900000E+00 0.000000000E+00 1.007918313E+03
1.232950000E-03 9.632900000E+00 0.000000000E+00 1.005555781E+03
1.347060000E-03 9.631000000E+00 0.000000000E+00 9.203747420E+02
1.446910000E-03 9.629300000E+00 0.000000000E+00 8.568604820E+02
1.534270000E-03 9.627900000E+00 0.000000000E+00 8.080715910E+02
1.610720000E-03 9.626600000E+00 0.000000000E+00 7.697178901E+02
1.677600000E-03 9.625500000E+00 0.000000000E+00 7.390319504E+02
1.794660000E-03 9.623500000E+00 0.000000000E+00 6.908272319E+02
1.882450000E-03 9.622100000E+00 0.000000000E+00 6.586097904E+02
1.948290000E-03 9.621000000E+00 0.000000000E+00 6.363529043E+02
2.000000000E-03 9.620100000E+00 0.000000000E+00 6.199000000E+02
2.071750000E-03 9.617300000E+00 0.000000000E+00 5.984312779E+02
2.145820000E-03 9.614300000E+00 0.000000000E+00 5.777744638E+02
2.151100000E-03 9.614100000E+00 0.000000000E+00 5.763562828E+02
2.156390000E-03 9.613900000E+00 0.000000000E+00 5.749423806E+02
2.161670000E-03 9.613700000E+00 0.000000000E+00 5.735380516E+02
2.166950000E-03 9.613500000E+00 0.000000000E+00 5.721405662E+02
2.172230000E-03 9.613300000E+00 0.000000000E+00 5.707498746E+02
2.177510000E-03 9.613000000E+00 0.000000000E+00 5.693659271E+02
2.182790000E-03 9.612800000E+00 0.000000000E+00 5.679886750E+02
2.188080000E-03 9.612600000E+00 0.000000000E+00 5.666154802E+02
2.193360000E-03 9.612400000E+00 0.000000000E+00 5.652514863E+02
2.198640000E-03 9.612200000E+00 0.000000000E+00 5.638940436E+02
2.203920000E-03 9.612000000E+00 0.000000000E+00 5.625431050E+02
2.209200000E-03 9.611800000E+00 0.000000000E+00 5.611986239E+02
2.214490000E-03 9.611600000E+00 0.000000000E+00 5.598580260E+02
2.225050000E-03 9.611200000E+00 0.000000000E+00 5.572009618E+02
2.230330000E-03 9.610900000E+00 0.000000000E+00 5.558818650E+02
2.235610000E-03 9.610700000E+00 0.000000000E+00 5.545689991E+02
2.240890000E-03 9.610500000E+00 0.000000000E+00 5.532623199E+02
2.246180000E-03 9.610300000E+00 0.000000000E+00 5.519593265E+02
2.251460000E-03 9.610100000E+00 0.000000000E+00 5.506649019E+02
2.292020000E-03 9.608500000E+00 0.000000000E+00 5.409202363E+02
2.322450000E-03 9.607300000E+00 0.000000000E+00 5.338328059E+02
2.345270000E-03 9.606400000E+00 0.000000000E+00 5.286384936E+02
2.362390000E-03 9.605700000E+00 0.000000000E+00 5.248075043E+02
2.375220000E-03 9.605200000E+00 0.000000000E+00 5.219727015E+02
2.384850000E-03 9.604800000E+00 0.000000000E+00 5.198649810E+02
2.399290000E-03 9.604200000E+00 0.000000000E+00 5.167362011E+02
2.406510000E-03 9.603900000E+00 0.000000000E+00 5.151858916E+02
2.410120000E-03 9.603800000E+00 0.000000000E+00 5.144142200E+02
2.413730000E-03 9.603600000E+00 0.000000000E+00 5.136448567E+02
2.425610000E-03 9.603100000E+00 0.000000000E+00 5.111291593E+02
2.431550000E-03 9.602900000E+00 0.000000000E+00 5.098805289E+02
2.437490000E-03 9.602700000E+00 0.000000000E+00 5.086379842E+02
2.443430000E-03 9.602400000E+00 0.000000000E+00 5.074014807E+02
2.447260000E-03 9.602300000E+00 0.000000000E+00 5.066073895E+02
2.451090000E-03 9.602100000E+00 0.000000000E+00 5.058157799E+02
2.456170000E-03 9.601900000E+00 0.000000000E+00 5.047696210E+02
2.458720000E-03 9.601800000E+00 0.000000000E+00 5.042461118E+02
2.461260000E-03 9.601700000E+00 0.000000000E+00 5.037257340E+02
2.464230000E-03 9.601600000E+00 0.000000000E+00 5.031186212E+02
2.467200000E-03 9.601500000E+00 0.000000000E+00 5.025129702E+02
2.473140000E-03 9.601300000E+00 0.000000000E+00 5.013060320E+02
2.473880000E-03 9.601200000E+00 0.000000000E+00 5.011560787E+02
2.475180000E-03 9.601200000E+00 0.000000000E+00 5.008928644E+02
2.477130000E-03 9.601100000E+00 0.000000000E+00 5.004985608E+02
2.478110000E-03 9.601100000E+00 0.000000000E+00 5.003006323E+02
2.478230000E-03 9.601000000E+00 0.000000000E+00 5.002764070E+02
2.478440000E-03 9.601000000E+00 0.000000000E+00 5.002340182E+02
2.478760000E-03 9.601000000E+00 0.000000000E+00 5.001694396E+02
2.478920000E-03 9.601000000E+00 0.000000000E+00 5.001371565E+02
2.479270000E-03 9.601000000E+00 0.000000000E+00 5.000665518E+02
2.479990000E-03 9.601000000E+00 0.000000000E+00 4.999213707E+02
2.481250000E-03 9.600900000E+00 0.000000000E+00 4.996675063E+02
2.485020000E-03 9.600800000E+00 0.000000000E+00 4.989094655E+02
2.486940000E-03 9.600700000E+00 0.000000000E+00 4.985242909E+02
2.489820000E-03 9.600600000E+00 0.000000000E+00 4.979476428E+02
2.492710000E-03 9.600500000E+00 0.000000000E+00 4.973703319E+02
2.495240000E-03 9.600400000E+00 0.000000000E+00 4.968660329E+02
2.499040000E-03 9.600200000E+00 0.000000000E+00 4.961105064E+02
2.500940000E-03 9.600100000E+00 0.000000000E+00 4.957336042E+02
2.502850000E-03 9.600100000E+00 0.000000000E+00 4.953552950E+02
2.505820000E-03 9.599900000E+00 0.000000000E+00 4.947681797E+02
2.508790000E-03 9.599800000E+00 0.000000000E+00 4.941824545E+02
2.514730000E-03 9.599600000E+00 0.000000000E+00 4.930151547E+02
2.520670000E-03 9.599400000E+00 0.000000000E+00 4.918533564E+02
2.524520000E-03 9.599200000E+00 0.000000000E+00 4.911032592E+02
2.530460000E-03 9.599000000E+00 0.000000000E+00 4.899504438E+02
2.531510000E-03 9.598900000E+00 0.000000000E+00 4.897472260E+02
2.532550000E-03 9.598900000E+00 0.000000000E+00 4.895461097E+02
2.533440000E-03 9.598800000E+00 0.000000000E+00 4.893741316E+02
2.534320000E-03 9.598800000E+00 0.000000000E+00 4.892042047E+02
2.536290000E-03 9.598700000E+00 0.000000000E+00 4.888242275E+02
2.538200000E-03 9.598700000E+00 0.000000000E+00 4.884563864E+02
2.539120000E-03 9.598600000E+00 0.000000000E+00 4.882794039E+02
2.539570000E-03 9.598600000E+00 0.000000000E+00 4.881928830E+02
2.539800000E-03 9.598600000E+00 0.000000000E+00 4.881486731E+02
2.540700000E-03 9.598600000E+00 0.000000000E+00 4.879757547E+02
2.542470000E-03 9.598500000E+00 0.000000000E+00 4.876360390E+02
2.545890000E-03 9.598300000E+00 0.000000000E+00 4.869809772E+02
2.571590000E-03 9.597300000E+00 0.000000000E+00 4.821141784E+02
2.578010000E-03 9.597100000E+00 0.000000000E+00 4.809135729E+02
2.582830000E-03 9.596900000E+00 0.000000000E+00 4.800161064E+02
2.590050000E-03 9.596600000E+00 0.000000000E+00 4.786780178E+02
2.595470000E-03 9.596400000E+00 0.000000000E+00 4.776784166E+02
2.597280000E-03 9.596300000E+00 0.000000000E+00 4.773455307E+02
2.600480000E-03 9.596200000E+00 0.000000000E+00 4.767581370E+02
2.610070000E-03 9.595800000E+00 0.000000000E+00 4.750064175E+02
2.616460000E-03 9.595500000E+00 0.000000000E+00 4.738463420E+02
2.622850000E-03 9.595300000E+00 0.000000000E+00 4.726919191E+02
2.629250000E-03 9.595000000E+00 0.000000000E+00 4.715413141E+02
2.632440000E-03 9.594900000E+00 0.000000000E+00 4.709698986E+02
2.635640000E-03 9.594800000E+00 0.000000000E+00 4.703980817E+02
2.638830000E-03 9.594600000E+00 0.000000000E+00 4.698294320E+02
2.642030000E-03 9.594500000E+00 0.000000000E+00 4.692603793E+02
2.645230000E-03 9.594400000E+00 0.000000000E+00 4.686927035E+02
2.648420000E-03 9.594300000E+00 0.000000000E+00 4.681281670E+02
2.653220000E-03 9.594100000E+00 0.000000000E+00 4.672812658E+02
2.654020000E-03 9.594000000E+00 0.000000000E+00 4.671404134E+02
2.655620000E-03 9.594000000E+00 0.000000000E+00 4.668589633E+02
2.659110000E-03 9.593800000E+00 0.000000000E+00 4.662462252E+02
2.659640000E-03 9.593800000E+00 0.000000000E+00 4.661533140E+02
2.659830000E-03 9.593800000E+00 0.000000000E+00 4.661200152E+02
2.660180000E-03 9.593800000E+00 0.000000000E+00 4.660586878E+02
2.660690000E-03 9.593800000E+00 0.000000000E+00 4.659693538E+02
2.660950000E-03 9.593800000E+00 0.000000000E+00 4.659238242E+02
2.661610000E-03 9.593700000E+00 0.000000000E+00 4.658082890E+02
2.667600000E-03 9.593500000E+00 0.000000000E+00 4.647623332E+02
2.669200000E-03 9.593400000E+00 0.000000000E+00 4.644837404E+02
2.674000000E-03 9.593200000E+00 0.000000000E+00 4.636499626E+02
2.677190000E-03 9.593100000E+00 0.000000000E+00 4.630975015E+02
2.680390000E-03 9.593000000E+00 0.000000000E+00 4.625446297E+02
2.683590000E-03 9.592900000E+00 0.000000000E+00 4.619930764E+02
2.686780000E-03 9.592700000E+00 0.000000000E+00 4.614445544E+02
2.689980000E-03 9.592600000E+00 0.000000000E+00 4.608956200E+02
2.693170000E-03 9.592500000E+00 0.000000000E+00 4.603496994E+02
2.699570000E-03 9.592200000E+00 0.000000000E+00 4.592583263E+02
2.705960000E-03 9.592000000E+00 0.000000000E+00 4.581738089E+02
2.712350000E-03 9.591700000E+00 0.000000000E+00 4.570944015E+02
2.718750000E-03 9.591500000E+00 0.000000000E+00 4.560183908E+02
2.725140000E-03 9.591200000E+00 0.000000000E+00 4.549491035E+02
2.727940000E-03 9.591100000E+00 0.000000000E+00 4.544821367E+02
2.733510000E-03 9.590900000E+00 0.000000000E+00 4.535560506E+02
2.744580000E-03 9.590400000E+00 0.000000000E+00 4.517266758E+02
2.755470000E-03 9.590000000E+00 0.000000000E+00 4.499413893E+02
2.766190000E-03 9.589600000E+00 0.000000000E+00 4.481977015E+02
2.787300000E-03 9.588700000E+00 0.000000000E+00 4.448032146E+02
2.807750000E-03 9.587900000E+00 0.000000000E+00 4.415635295E+02
2.827550000E-03 9.587100000E+00 0.000000000E+00 4.384714682E+02
2.865930000E-03 9.585600000E+00 0.000000000E+00 4.325995401E+02
2.901910000E-03 9.584100000E+00 0.000000000E+00 4.272358550E+02
2.935650000E-03 9.582800000E+00 0.000000000E+00 4.223255497E+02
2.998890000E-03 9.580300000E+00 0.000000000E+00 4.134196319E+02
3.054240000E-03 9.578100000E+00 0.000000000E+00 4.059274975E+02
3.151080000E-03 9.574200000E+00 0.000000000E+00 3.934524036E+02
3.223720000E-03 9.571300000E+00 0.000000000E+00 3.845867507E+02
3.332670000E-03 9.567000000E+00 0.000000000E+00 3.720140308E+02
3.441630000E-03 9.562600000E+00 0.000000000E+00 3.602362834E+02
3.450100000E-03 9.562300000E+00 0.000000000E+00 3.593519028E+02
3.458570000E-03 9.561900000E+00 0.000000000E+00 3.584718540E+02
3.467040000E-03 9.561600000E+00 0.000000000E+00 3.575961050E+02
3.475510000E-03 9.561300000E+00 0.000000000E+00 3.567246246E+02
3.483980000E-03 9.560900000E+00 0.000000000E+00 3.558573815E+02
3.492460000E-03 9.560600000E+00 0.000000000E+00 3.549933285E+02
3.500930000E-03 9.560200000E+00 0.000000000E+00 3.541344728E+02
3.509400000E-03 9.559900000E+00 0.000000000E+00 3.532797629E+02
3.517870000E-03 9.559600000E+00 0.000000000E+00 3.524291688E+02
3.526340000E-03 9.559200000E+00 0.000000000E+00 3.515826608E+02
3.534810000E-03 9.558900000E+00 0.000000000E+00 3.507402095E+02
3.543280000E-03 9.558500000E+00 0.000000000E+00 3.499017859E+02
3.551750000E-03 9.558200000E+00 0.000000000E+00 3.490673612E+02
3.568700000E-03 9.557500000E+00 0.000000000E+00 3.474094208E+02
3.577170000E-03 9.557200000E+00 0.000000000E+00 3.465868270E+02
3.585640000E-03 9.556900000E+00 0.000000000E+00 3.457681195E+02
3.594110000E-03 9.556500000E+00 0.000000000E+00 3.449532708E+02
3.602580000E-03 9.556200000E+00 0.000000000E+00 3.441422536E+02
3.611050000E-03 9.555800000E+00 0.000000000E+00 3.433350411E+02
3.813920000E-03 9.547700000E+00 0.000000000E+00 3.250723665E+02
3.915360000E-03 9.543700000E+00 0.000000000E+00 3.166503208E+02
3.966070000E-03 9.541700000E+00 0.000000000E+00 3.126016434E+02
4.000000000E-03 9.540300000E+00 0.000000000E+00 3.099500000E+02
4.016790000E-03 9.538600000E+00 0.000000000E+00 3.086544231E+02
4.026680000E-03 9.537600000E+00 0.000000000E+00 3.078963315E+02
4.036570000E-03 9.536500000E+00 0.000000000E+00 3.071419547E+02
4.046450000E-03 9.535500000E+00 0.000000000E+00 3.063920226E+02
4.056340000E-03 9.534500000E+00 0.000000000E+00 3.056449903E+02
4.066230000E-03 9.533500000E+00 0.000000000E+00 3.049015919E+02
4.069550000E-03 9.533100000E+00 0.000000000E+00 3.046528486E+02
4.071220000E-03 9.532900000E+00 0.000000000E+00 3.045278811E+02
4.072050000E-03 9.532900000E+00 0.000000000E+00 3.044658096E+02
4.072880000E-03 9.532800000E+00 0.000000000E+00 3.044037634E+02
4.073510000E-03 9.532700000E+00 0.000000000E+00 3.043566850E+02
4.074720000E-03 9.532600000E+00 0.000000000E+00 3.042663054E+02
4.075860000E-03 9.532500000E+00 0.000000000E+00 3.041812035E+02
4.076930000E-03 9.532400000E+00 0.000000000E+00 3.041013704E+02
4.077930000E-03 9.532300000E+00 0.000000000E+00 3.040267979E+02
4.079740000E-03 9.532100000E+00 0.000000000E+00 3.038919147E+02
4.082790000E-03 9.531800000E+00 0.000000000E+00 3.036648958E+02
4.094380000E-03 9.530600000E+00 0.000000000E+00 3.028053087E+02
4.096910000E-03 9.530300000E+00 0.000000000E+00 3.026183148E+02
4.104510000E-03 9.529500000E+00 0.000000000E+00 3.020579801E+02
4.107020000E-03 9.529200000E+00 0.000000000E+00 3.018733778E+02
4.114520000E-03 9.528500000E+00 0.000000000E+00 3.013231191E+02
4.115770000E-03 9.528300000E+00 0.000000000E+00 3.012316043E+02
4.118110000E-03 9.528100000E+00 0.000000000E+00 3.010604379E+02
4.120170000E-03 9.527900000E+00 0.000000000E+00 3.009099139E+02
4.123530000E-03 9.527500000E+00 0.000000000E+00 3.006647217E+02
4.126110000E-03 9.527300000E+00 0.000000000E+00 3.004767202E+02
4.128080000E-03 9.527100000E+00 0.000000000E+00 3.003333269E+02
4.130210000E-03 9.526800000E+00 0.000000000E+00 3.001784413E+02
4.131290000E-03 9.526700000E+00 0.000000000E+00 3.000999688E+02
4.132910000E-03 9.526600000E+00 0.000000000E+00 2.999823369E+02
4.134530000E-03 9.526400000E+00 0.000000000E+00 2.998647972E+02
4.137640000E-03 9.526100000E+00 0.000000000E+00 2.996394080E+02
4.139980000E-03 9.525800000E+00 0.000000000E+00 2.994700457E+02
4.143490000E-03 9.525500000E+00 0.000000000E+00 2.992163611E+02
4.145240000E-03 9.525300000E+00 0.000000000E+00 2.990900406E+02
4.151100000E-03 9.524700000E+00 0.000000000E+00 2.986678230E+02
4.159870000E-03 9.523800000E+00 0.000000000E+00 2.980381598E+02
4.164540000E-03 9.523300000E+00 0.000000000E+00 2.977039481E+02
4.174540000E-03 9.522300000E+00 0.000000000E+00 2.969908062E+02
4.184870000E-03 9.521200000E+00 0.000000000E+00 2.962577093E+02
4.194750000E-03 9.520200000E+00 0.000000000E+00 2.955599261E+02
4.201050000E-03 9.519500000E+00 0.000000000E+00 2.951166970E+02
4.207350000E-03 9.518900000E+00 0.000000000E+00 2.946747953E+02
4.217410000E-03 9.517800000E+00 0.000000000E+00 2.939718927E+02
4.224570000E-03 9.517100000E+00 0.000000000E+00 2.934736553E+02
4.233280000E-03 9.516200000E+00 0.000000000E+00 2.928698314E+02
4.243300000E-03 9.515100000E+00 0.000000000E+00 2.921782575E+02
4.253330000E-03 9.514100000E+00 0.000000000E+00 2.914892567E+02
4.267700000E-03 9.512600000E+00 0.000000000E+00 2.905077677E+02
4.273380000E-03 9.512000000E+00 0.000000000E+00 2.901216367E+02
4.287820000E-03 9.510500000E+00 0.000000000E+00 2.891446003E+02
4.317600000E-03 9.507500000E+00 0.000000000E+00 2.871502687E+02
4.369730000E-03 9.502100000E+00 0.000000000E+00 2.837246237E+02
4.447910000E-03 9.494000000E+00 0.000000000E+00 2.787376543E+02
4.526100000E-03 9.485900000E+00 0.000000000E+00 2.739223614E+02
4.526120000E-03 9.485900000E+00 0.000000000E+00 2.739211510E+02
4.537260000E-03 9.484700000E+00 0.000000000E+00 2.732486126E+02
4.548400000E-03 9.483600000E+00 0.000000000E+00 2.725793686E+02
4.559540000E-03 9.482400000E+00 0.000000000E+00 2.719133948E+02
4.570680000E-03 9.481300000E+00 0.000000000E+00 2.712506673E+02
4.581820000E-03 9.480100000E+00 0.000000000E+00 2.705911625E+02
4.587930000E-03 9.479500000E+00 0.000000000E+00 2.702308013E+02
4.610520000E-03 9.477100000E+00 0.000000000E+00 2.689067611E+02
4.612340000E-03 9.476900000E+00 0.000000000E+00 2.688006522E+02
4.621810000E-03 9.476000000E+00 0.000000000E+00 2.682498848E+02
4.635050000E-03 9.474400000E+00 0.000000000E+00 2.674836302E+02
4.646400000E-03 9.472600000E+00 0.000000000E+00 2.668302342E+02
4.657750000E-03 9.470900000E+00 0.000000000E+00 2.661800225E+02
4.670940000E-03 9.468900000E+00 0.000000000E+00 2.654283720E+02
4.682080000E-03 9.467200000E+00 0.000000000E+00 2.647968424E+02
4.693220000E-03 9.465500000E+00 0.000000000E+00 2.641683109E+02
4.704360000E-03 9.463800000E+00 0.000000000E+00 2.635427561E+02
4.715500000E-03 9.462100000E+00 0.000000000E+00 2.629201569E+02
4.726640000E-03 9.460400000E+00 0.000000000E+00 2.623004925E+02
4.737780000E-03 9.458700000E+00 0.000000000E+00 2.616837422E+02
4.748920000E-03 9.456900000E+00 0.000000000E+00 2.610698854E+02
4.760100000E-03 9.455200000E+00 0.000000000E+00 2.604567131E+02
4.771280000E-03 9.453500000E+00 0.000000000E+00 2.598464144E+02
4.782630000E-03 9.451800000E+00 0.000000000E+00 2.592297543E+02
4.793990000E-03 9.450100000E+00 0.000000000E+00 2.586154748E+02
4.805340000E-03 9.448300000E+00 0.000000000E+00 2.580046365E+02
4.813850000E-03 9.447000000E+00 0.000000000E+00 2.575485318E+02
4.816690000E-03 9.446600000E+00 0.000000000E+00 2.573966770E+02
4.828040000E-03 9.444800000E+00 0.000000000E+00 2.567915759E+02
4.839400000E-03 9.443100000E+00 0.000000000E+00 2.561887837E+02
4.847970000E-03 9.441800000E+00 0.000000000E+00 2.557359060E+02
4.848690000E-03 9.441700000E+00 0.000000000E+00 2.556979308E+02
4.857850000E-03 9.440300000E+00 0.000000000E+00 2.552157848E+02
4.870640000E-03 9.438300000E+00 0.000000000E+00 2.545456039E+02
4.882620000E-03 9.436500000E+00 0.000000000E+00 2.539210506E+02
4.894610000E-03 9.434700000E+00 0.000000000E+00 2.532990371E+02
4.906600000E-03 9.432800000E+00 0.000000000E+00 2.526800636E+02
4.918590000E-03 9.431000000E+00 0.000000000E+00 2.520641078E+02
4.931820000E-03 9.429000000E+00 0.000000000E+00 2.513879258E+02
4.955580000E-03 9.424000000E+00 0.000000000E+00 2.501826224E+02
4.967450000E-03 9.420600000E+00 0.000000000E+00 2.495847970E+02
4.979330000E-03 9.417300000E+00 0.000000000E+00 2.489893219E+02
4.991200000E-03 9.413900000E+00 0.000000000E+00 2.483971790E+02
5.003080000E-03 9.410500000E+00 0.000000000E+00 2.478073507E+02
5.019130000E-03 9.405900000E+00 0.000000000E+00 2.470149209E+02
5.039010000E-03 9.400300000E+00 0.000000000E+00 2.460403929E+02
5.051360000E-03 9.396800000E+00 0.000000000E+00 2.454388521E+02
5.062460000E-03 9.393600000E+00 0.000000000E+00 2.449007004E+02
5.074440000E-03 9.390200000E+00 0.000000000E+00 2.443225262E+02
5.088380000E-03 9.386200000E+00 0.000000000E+00 2.436531863E+02
5.110400000E-03 9.380000000E+00 0.000000000E+00 2.426033187E+02
5.125410000E-03 9.375700000E+00 0.000000000E+00 2.418928437E+02
5.137750000E-03 9.372200000E+00 0.000000000E+00 2.413118583E+02
