# Data retrieved from https://www-nds.iaea.org/epdl97/za1to100.htm 03/01/2021
# Element, F  (Z = 9) 
# Atomic weight, g mol-1 = 18.998 
# Nominal density, g cm-3 =  1.69600E-3 
# Relativistic correction estimate f_rel(5CL)*,  e atom-1 =  0 
# Nuclear Thomson correction f_NT*, e atom-1 =  0 
#    E [keV]      f1 [e atom-1]      f2 [e atom-1]    Wavelength [nm] 
1.000000000E-03 4.729800000E-01 0.000000000E+00 1.239800000E+03
2.000000000E-03 4.615700000E-01 0.000000000E+00 6.199000000E+02
3.000000000E-03 4.382500000E-01 0.000000000E+00 4.132666667E+02
3.796880000E-03 4.196700000E-01 0.000000000E+00 3.265312572E+02
4.000000000E-03 4.149300000E-01 0.000000000E+00 3.099500000E+02
4.805420000E-03 3.818500000E-01 0.000000000E+00 2.580003413E+02
5.406100000E-03 3.571700000E-01 0.000000000E+00 2.293335306E+02
6.000000000E-03 3.327700000E-01 0.000000000E+00 2.066333333E+02
6.842090000E-03 2.834000000E-01 0.000000000E+00 1.812019427E+02
7.533340000E-03 2.421600000E-01 0.000000000E+00 1.645750756E+02
8.138180000E-03 1.934900000E-01 0.000000000E+00 1.523436444E+02
8.667420000E-03 1.501800000E-01 0.000000000E+00 1.430414126E+02
9.130500000E-03 1.122900000E-01 0.000000000E+00 1.357866491E+02
9.375000000E-03 9.228000000E-02 0.000000000E+00 1.322453333E+02
9.535700000E-03 7.410000000E-02 0.000000000E+00 1.300166742E+02
9.890250000E-03 3.400000000E-02 0.000000000E+00 1.253557797E+02
1.020050000E-02 -1.080000000E-03 0.000000000E+00 1.215430616E+02
1.047190000E-02 -3.179000000E-02 0.000000000E+00 1.183930328E+02
1.070940000E-02 -5.865000000E-02 0.000000000E+00 1.157674566E+02
1.091730000E-02 -8.216000000E-02 0.000000000E+00 1.135628773E+02
1.112330000E-02 -1.058900000E-01 0.000000000E+00 1.114597287E+02
1.128100000E-02 -1.298700000E-01 0.000000000E+00 1.099016045E+02
1.155370000E-02 -1.713500000E-01 0.000000000E+00 1.073076157E+02
1.175830000E-02 -2.024500000E-01 0.000000000E+00 1.054404123E+02
1.191180000E-02 -2.257800000E-01 0.000000000E+00 1.040816669E+02
1.202680000E-02 -2.432800000E-01 0.000000000E+00 1.030864403E+02
1.211320000E-02 -2.564000000E-01 0.000000000E+00 1.023511541E+02
1.217790000E-02 -2.662400000E-01 0.000000000E+00 1.018073724E+02
1.227500000E-02 -2.810100000E-01 0.000000000E+00 1.010020367E+02
1.232350000E-02 -2.883900000E-01 0.000000000E+00 1.006045360E+02
1.237210000E-02 -2.957700000E-01 0.000000000E+00 1.002093420E+02
1.240500000E-02 -3.007800000E-01 0.000000000E+00 9.994357114E+01
1.243300000E-02 -3.058600000E-01 0.000000000E+00 9.971849111E+01
1.244350000E-02 -3.079100000E-01 0.000000000E+00 9.963434725E+01
1.247410000E-02 -3.139400000E-01 0.000000000E+00 9.938993595E+01
1.250480000E-02 -3.199600000E-01 0.000000000E+00 9.914592796E+01
1.253540000E-02 -3.259800000E-01 0.000000000E+00 9.890390414E+01
1.256600000E-02 -3.320100000E-01 0.000000000E+00 9.866305905E+01
1.259670000E-02 -3.380300000E-01 0.000000000E+00 9.842260275E+01
1.262140000E-02 -3.429000000E-01 0.000000000E+00 9.822999033E+01
1.264610000E-02 -3.477600000E-01 0.000000000E+00 9.803813033E+01
1.266730000E-02 -3.519300000E-01 0.000000000E+00 9.787405367E+01
1.267790000E-02 -3.540100000E-01 0.000000000E+00 9.779222111E+01
1.268850000E-02 -3.561000000E-01 0.000000000E+00 9.771052528E+01
1.271150000E-02 -3.606200000E-01 0.000000000E+00 9.753372930E+01
1.272680000E-02 -3.636300000E-01 0.000000000E+00 9.741647547E+01
1.273830000E-02 -3.658900000E-01 0.000000000E+00 9.732852892E+01
1.274410000E-02 -3.670200000E-01 0.000000000E+00 9.728423349E+01
1.274690000E-02 -3.675800000E-01 0.000000000E+00 9.726286391E+01
1.275170000E-02 -3.685200000E-01 0.000000000E+00 9.722625219E+01
1.278040000E-02 -3.741700000E-01 0.000000000E+00 9.700791838E+01
1.278430000E-02 -3.749200000E-01 0.000000000E+00 9.697832498E+01
1.281110000E-02 -3.801900000E-01 0.000000000E+00 9.677545254E+01
1.282310000E-02 -3.825600000E-01 0.000000000E+00 9.668488899E+01
1.284120000E-02 -3.861200000E-01 0.000000000E+00 9.654860916E+01
1.285930000E-02 -3.896800000E-01 0.000000000E+00 9.641271298E+01
1.288110000E-02 -3.939700000E-01 0.000000000E+00 9.624954391E+01
1.290290000E-02 -3.982600000E-01 0.000000000E+00 9.608692619E+01
1.293360000E-02 -4.042800000E-01 0.000000000E+00 9.585884827E+01
1.296420000E-02 -4.103100000E-01 0.000000000E+00 9.563258820E+01
1.299480000E-02 -4.163300000E-01 0.000000000E+00 9.540739373E+01
1.304080000E-02 -4.253600000E-01 0.000000000E+00 9.507085455E+01
1.305610000E-02 -4.283700000E-01 0.000000000E+00 9.495944424E+01
1.306870000E-02 -4.308700000E-01 0.000000000E+00 9.486789046E+01
1.309370000E-02 -4.357700000E-01 0.000000000E+00 9.468675775E+01
1.311780000E-02 -4.405200000E-01 0.000000000E+00 9.451279940E+01
1.316460000E-02 -4.497200000E-01 0.000000000E+00 9.417680750E+01
1.320850000E-02 -4.583500000E-01 0.000000000E+00 9.386379983E+01
1.324970000E-02 -4.664400000E-01 0.000000000E+00 9.357192993E+01
1.328820000E-02 -4.740200000E-01 0.000000000E+00 9.330082329E+01
1.337900000E-02 -4.918700000E-01 0.000000000E+00 9.266761342E+01
1.347740000E-02 -5.155800000E-01 0.000000000E+00 9.199103685E+01
1.357470000E-02 -5.396600000E-01 0.000000000E+00 9.133166847E+01
1.370250000E-02 -5.712600000E-01 0.000000000E+00 9.047983945E+01
1.377430000E-02 -5.890400000E-01 0.000000000E+00 9.000820368E+01
1.382050000E-02 -6.004700000E-01 0.000000000E+00 8.970731884E+01
1.384360000E-02 -6.061800000E-01 0.000000000E+00 8.955762952E+01
1.385510000E-02 -6.090400000E-01 0.000000000E+00 8.948329496E+01
1.386670000E-02 -6.119000000E-01 0.000000000E+00 8.940843892E+01
1.388460000E-02 -6.163400000E-01 0.000000000E+00 8.929317373E+01
1.390260000E-02 -6.207800000E-01 0.000000000E+00 8.917756391E+01
1.393500000E-02 -6.287900000E-01 0.000000000E+00 8.897021887E+01
1.396910000E-02 -6.372300000E-01 0.000000000E+00 8.875303348E+01
1.400500000E-02 -6.461200000E-01 0.000000000E+00 8.852552660E+01
1.404110000E-02 -6.550400000E-01 0.000000000E+00 8.829792538E+01
1.405860000E-02 -6.594000000E-01 0.000000000E+00 8.818801303E+01
1.408500000E-02 -6.659300000E-01 0.000000000E+00 8.802271920E+01
1.411140000E-02 -6.725900000E-01 0.000000000E+00 8.785804385E+01
1.412860000E-02 -6.779200000E-01 0.000000000E+00 8.775108645E+01
1.414580000E-02 -6.832400000E-01 0.000000000E+00 8.764438915E+01
1.416200000E-02 -6.884200000E-01 0.000000000E+00 8.754413218E+01
1.417010000E-02 -6.911000000E-01 0.000000000E+00 8.749408967E+01
1.418690000E-02 -6.966100000E-01 0.000000000E+00 8.739047995E+01
1.420940000E-02 -7.040300000E-01 0.000000000E+00 8.725210072E+01
1.421520000E-02 -7.059500000E-01 0.000000000E+00 8.721650065E+01
1.424690000E-02 -7.163900000E-01 0.000000000E+00 8.702243997E+01
1.425140000E-02 -7.178800000E-01 0.000000000E+00 8.699496190E+01
1.426720000E-02 -7.230900000E-01 0.000000000E+00 8.689862061E+01
1.428300000E-02 -7.282900000E-01 0.000000000E+00 8.680249247E+01
1.430020000E-02 -7.339500000E-01 0.000000000E+00 8.669808814E+01
1.431730000E-02 -7.396000000E-01 0.000000000E+00 8.659453947E+01
1.433260000E-02 -7.446500000E-01 0.000000000E+00 8.650210011E+01
1.435570000E-02 -7.522300000E-01 0.000000000E+00 8.636290811E+01
1.437870000E-02 -7.598100000E-01 0.000000000E+00 8.622476302E+01
1.441460000E-02 -7.716600000E-01 0.000000000E+00 8.601001762E+01
1.444690000E-02 -7.823100000E-01 0.000000000E+00 8.581771868E+01
1.448100000E-02 -7.935600000E-01 0.000000000E+00 8.561563428E+01
1.453620000E-02 -8.117500000E-01 0.000000000E+00 8.529051609E+01
1.454930000E-02 -8.160500000E-01 0.000000000E+00 8.521372162E+01
1.455120000E-02 -8.166600000E-01 0.000000000E+00 8.520259497E+01
1.455570000E-02 -8.181400000E-01 0.000000000E+00 8.517625398E+01
1.457370000E-02 -8.241000000E-01 0.000000000E+00 8.507105265E+01
1.459180000E-02 -8.300600000E-01 0.000000000E+00 8.496552858E+01
1.462430000E-02 -8.407600000E-01 0.000000000E+00 8.477670726E+01
1.462610000E-02 -8.413600000E-01 0.000000000E+00 8.476627399E+01
1.470400000E-02 -8.670300000E-01 0.000000000E+00 8.431719260E+01
1.486210000E-02 -9.243700000E-01 0.000000000E+00 8.342024344E+01
1.491610000E-02 -9.439900000E-01 0.000000000E+00 8.311824136E+01
1.493340000E-02 -9.503200000E-01 0.000000000E+00 8.302195079E+01
1.500690000E-02 -9.770500000E-01 0.000000000E+00 8.261533028E+01
1.504500000E-02 -9.908900000E-01 0.000000000E+00 8.240611499E+01
1.508160000E-02 -1.004200000E+00 0.000000000E+00 8.220613198E+01
1.509030000E-02 -1.007400000E+00 0.000000000E+00 8.215873773E+01
1.511820000E-02 -1.017500000E+00 0.000000000E+00 8.200711725E+01
1.516170000E-02 -1.033300000E+00 0.000000000E+00 8.177183297E+01
1.518740000E-02 -1.042700000E+00 0.000000000E+00 8.163345931E+01
1.520510000E-02 -1.049100000E+00 0.000000000E+00 8.153843118E+01
1.522590000E-02 -1.059000000E+00 0.000000000E+00 8.142704208E+01
1.526450000E-02 -1.077200000E+00 0.000000000E+00 8.122113400E+01
1.530110000E-02 -1.094500000E+00 0.000000000E+00 8.102685428E+01
1.533780000E-02 -1.111800000E+00 0.000000000E+00 8.083297474E+01
1.537450000E-02 -1.129200000E+00 0.000000000E+00 8.064002081E+01
1.539290000E-02 -1.137900000E+00 0.000000000E+00 8.054362726E+01
1.541130000E-02 -1.146600000E+00 0.000000000E+00 8.044746387E+01
1.545540000E-02 -1.167500000E+00 0.000000000E+00 8.021791736E+01
1.549940000E-02 -1.188300000E+00 0.000000000E+00 7.999019317E+01
1.554530000E-02 -1.210400000E+00 0.000000000E+00 7.975400925E+01
1.558240000E-02 -1.230000000E+00 0.000000000E+00 7.956412363E+01
1.561030000E-02 -1.244800000E+00 0.000000000E+00 7.942192014E+01
1.562480000E-02 -1.252500000E+00 0.000000000E+00 7.934821566E+01
1.564670000E-02 -1.264000000E+00 0.000000000E+00 7.923715544E+01
1.565760000E-02 -1.269800000E+00 0.000000000E+00 7.918199469E+01
1.566860000E-02 -1.275600000E+00 0.000000000E+00 7.912640568E+01
1.570430000E-02 -1.294500000E+00 0.000000000E+00 7.894653057E+01
1.572180000E-02 -1.303800000E+00 0.000000000E+00 7.885865486E+01
1.573730000E-02 -1.312000000E+00 0.000000000E+00 7.878098530E+01
1.576030000E-02 -1.324900000E+00 0.000000000E+00 7.866601524E+01
1.579940000E-02 -1.349900000E+00 0.000000000E+00 7.847133435E+01
1.580130000E-02 -1.351200000E+00 0.000000000E+00 7.846189870E+01
1.581480000E-02 -1.359800000E+00 0.000000000E+00 7.839492121E+01
1.583340000E-02 -1.371800000E+00 0.000000000E+00 7.830282820E+01
1.585360000E-02 -1.384600000E+00 0.000000000E+00 7.820305798E+01
1.589230000E-02 -1.409400000E+00 0.000000000E+00 7.801262246E+01
1.591440000E-02 -1.423600000E+00 0.000000000E+00 7.790428794E+01
1.592610000E-02 -1.431100000E+00 0.000000000E+00 7.784705609E+01
1.595310000E-02 -1.448400000E+00 0.000000000E+00 7.771530298E+01
1.596220000E-02 -1.454900000E+00 0.000000000E+00 7.767099773E+01
1.598530000E-02 -1.471700000E+00 0.000000000E+00 7.755875711E+01
1.600850000E-02 -1.488500000E+00 0.000000000E+00 7.744635662E+01
1.603750000E-02 -1.511100000E+00 0.000000000E+00 7.730631333E+01
1.608600000E-02 -1.553100000E+00 0.000000000E+00 7.707323138E+01
1.612470000E-02 -1.586800000E+00 0.000000000E+00 7.688825218E+01
1.614100000E-02 -1.600900000E+00 0.000000000E+00 7.681060653E+01
1.617200000E-02 -1.627900000E+00 0.000000000E+00 7.666336879E+01
1.618850000E-02 -1.642200000E+00 0.000000000E+00 7.658523026E+01
1.621330000E-02 -1.663600000E+00 0.000000000E+00 7.646808484E+01
1.623800000E-02 -1.685100000E+00 0.000000000E+00 7.635176746E+01
1.626470000E-02 -1.708300000E+00 0.000000000E+00 7.622642901E+01
1.630080000E-02 -1.739600000E+00 0.000000000E+00 7.605761680E+01
1.634320000E-02 -1.782000000E+00 2.488780000E-06 7.586029664E+01
1.638450000E-02 -1.826500000E+00 1.091770000E-05 7.566907748E+01
1.642050000E-02 -1.869500000E+00 3.548710000E-05 7.550318200E+01
1.648580000E-02 -1.955300000E+00 2.495300000E-04 7.520411506E+01
1.657390000E-02 -2.093500000E+00 2.412670000E-03 7.480436107E+01
1.663250000E-02 -2.206600000E+00 8.770880000E-03 7.454080866E+01
1.671860000E-02 -2.415800000E+00 4.305660000E-02 7.415692702E+01
1.679620000E-02 -2.649200000E+00 1.349540000E-01 7.381431514E+01
1.696770000E-02 -3.096300000E+00 7.080310000E-01 7.306824142E+01
1.717750000E-02 -2.889500000E+00 1.567200000E+00 7.217581138E+01
1.795320000E-02 -2.004800000E+00 2.009270000E+00 6.905732683E+01
1.823210000E-02 -1.881400000E+00 2.088360000E+00 6.800094339E+01
1.833120000E-02 -1.845200000E+00 2.115910000E+00 6.763332461E+01
1.845350000E-02 -1.808800000E+00 2.149110000E+00 6.718508684E+01
1.849370000E-02 -1.796800000E+00 2.160030000E+00 6.703904573E+01
1.850710000E-02 -1.792800000E+00 2.163660000E+00 6.699050635E+01
1.852320000E-02 -1.788000000E+00 2.168060000E+00 6.693227952E+01
1.859820000E-02 -1.765700000E+00 2.188410000E+00 6.666236518E+01
1.864370000E-02 -1.752100000E+00 2.200780000E+00 6.649967549E+01
1.868930000E-02 -1.738600000E+00 2.213150000E+00 6.633742302E+01
1.873480000E-02 -1.726100000E+00 2.225340000E+00 6.617631360E+01
1.875080000E-02 -1.721800000E+00 2.229590000E+00 6.611984555E+01
1.877470000E-02 -1.715400000E+00 2.235970000E+00 6.603567567E+01
1.879860000E-02 -1.709000000E+00 2.242350000E+00 6.595171981E+01
1.881690000E-02 -1.704100000E+00 2.247200000E+00 6.588757978E+01
1.884420000E-02 -1.696800000E+00 2.254480000E+00 6.579212702E+01
1.885780000E-02 -1.693200000E+00 2.258120000E+00 6.574467859E+01
1.890570000E-02 -1.680600000E+00 2.270820000E+00 6.557810607E+01
1.892500000E-02 -1.676200000E+00 2.275790000E+00 6.551122853E+01
1.895790000E-02 -1.668700000E+00 2.284240000E+00 6.539753876E+01
1.900820000E-02 -1.657300000E+00 2.297150000E+00 6.522448207E+01
1.903090000E-02 -1.652100000E+00 2.303000000E+00 6.514668250E+01
1.905370000E-02 -1.647000000E+00 2.308850000E+00 6.506872681E+01
1.906940000E-02 -1.643400000E+00 2.312870000E+00 6.501515517E+01
1.909280000E-02 -1.638100000E+00 2.318900000E+00 6.493547306E+01
1.911630000E-02 -1.632700000E+00 2.324930000E+00 6.485564675E+01
1.915330000E-02 -1.624300000E+00 2.334450000E+00 6.473035978E+01
1.919040000E-02 -1.615900000E+00 2.343960000E+00 6.460521928E+01
1.923590000E-02 -1.605500000E+00 2.355670000E+00 6.445240410E+01
1.928150000E-02 -1.595200000E+00 2.367370000E+00 6.429997666E+01
1.932700000E-02 -1.585200000E+00 2.378950000E+00 6.414860040E+01
1.937260000E-02 -1.575500000E+00 2.390440000E+00 6.399760486E+01
1.941810000E-02 -1.565700000E+00 2.401930000E+00 6.384764730E+01
1.946290000E-02 -1.556200000E+00 2.413220000E+00 6.370068181E+01
1.955210000E-02 -1.538200000E+00 2.435200000E+00 6.341006848E+01
1.964060000E-02 -1.521100000E+00 2.456670000E+00 6.312434447E+01
1.981620000E-02 -1.487100000E+00 2.499280000E+00 6.256497209E+01
2.000000000E-02 -1.451600000E+00 2.543880000E+00 6.199000000E+01
2.018370000E-02 -1.417300000E+00 2.587510000E+00 6.142580399E+01
2.049420000E-02 -1.362600000E+00 2.658410000E+00 6.049516449E+01
2.089300000E-02 -1.292900000E+00 2.748720000E+00 5.934044895E+01
2.162720000E-02 -1.170100000E+00 2.905480000E+00 5.732595990E+01
2.314230000E-02 -9.289000000E-01 3.197930000E+00 5.357289466E+01
2.650000000E-02 -4.206700000E-01 3.737130000E+00 4.678490566E+01
2.769030000E-02 -2.439300000E-01 3.894070000E+00 4.477380166E+01
2.833370000E-02 -1.486200000E-01 3.975760000E+00 4.375708079E+01
2.884730000E-02 -7.308000000E-02 4.034400000E+00 4.297802567E+01
2.924640000E-02 -1.438000000E-02 4.079960000E+00 4.239154221E+01
2.942080000E-02 9.920000000E-03 4.099870000E+00 4.214025451E+01
2.960310000E-02 3.533000000E-02 4.120690000E+00 4.188074898E+01
2.976260000E-02 5.756000000E-02 4.138900000E+00 4.165630691E+01
2.990210000E-02 7.701000000E-02 4.154830000E+00 4.146197090E+01
3.002430000E-02 9.401000000E-02 4.168520000E+00 4.129321916E+01
3.013110000E-02 1.088200000E-01 4.179580000E+00 4.114685491E+01
3.031810000E-02 1.346800000E-01 4.198260000E+00 4.089306388E+01
3.045840000E-02 1.540600000E-01 4.211980000E+00 4.070469887E+01
3.056360000E-02 1.685900000E-01 4.222270000E+00 4.056459318E+01
3.064250000E-02 1.794800000E-01 4.229980000E+00 4.046014522E+01
3.070160000E-02 1.876600000E-01 4.235770000E+00 4.038226021E+01
3.079040000E-02 1.999200000E-01 4.244450000E+00 4.026579713E+01
3.083480000E-02 2.060500000E-01 4.248790000E+00 4.020781714E+01
3.087910000E-02 2.121800000E-01 4.253130000E+00 4.015013391E+01
3.091720000E-02 2.174300000E-01 4.256850000E+00 4.010065595E+01
3.103120000E-02 2.331800000E-01 4.268000000E+00 3.995333729E+01
3.110720000E-02 2.436800000E-01 4.275430000E+00 3.985572472E+01
3.118320000E-02 2.541800000E-01 4.282860000E+00 3.975858796E+01
3.125920000E-02 2.646800000E-01 4.290300000E+00 3.966192353E+01
3.129720000E-02 2.699300000E-01 4.294010000E+00 3.961376737E+01
3.133520000E-02 2.751800000E-01 4.297730000E+00 3.956572800E+01
3.137320000E-02 2.804300000E-01 4.301450000E+00 3.951780501E+01
3.141120000E-02 2.856800000E-01 4.305170000E+00 3.946999796E+01
3.144920000E-02 2.909300000E-01 4.308880000E+00 3.942230645E+01
3.148720000E-02 2.961800000E-01 4.312600000E+00 3.937473005E+01
3.154420000E-02 3.040500000E-01 4.318170000E+00 3.930358037E+01
3.155370000E-02 3.053600000E-01 4.319100000E+00 3.929174709E+01
3.157270000E-02 3.079900000E-01 4.320960000E+00 3.926810187E+01
3.161430000E-02 3.137300000E-01 4.325030000E+00 3.921643054E+01
3.162280000E-02 3.149200000E-01 4.325870000E+00 3.920588942E+01
3.162490000E-02 3.152000000E-01 4.326070000E+00 3.920328602E+01
3.162850000E-02 3.156900000E-01 4.326420000E+00 3.919882385E+01
3.163380000E-02 3.164300000E-01 4.326940000E+00 3.919225638E+01
3.163650000E-02 3.168100000E-01 4.327200000E+00 3.918891154E+01
3.163920000E-02 3.171800000E-01 4.327470000E+00 3.918556727E+01
3.164400000E-02 3.178300000E-01 4.327930000E+00 3.917962331E+01
3.173420000E-02 3.303000000E-01 4.336760000E+00 3.906826074E+01
3.179120000E-02 3.381800000E-01 4.342330000E+00 3.899821334E+01
3.182920000E-02 3.434300000E-01 4.346050000E+00 3.895165446E+01
3.186960000E-02 3.490000000E-01 4.350000000E+00 3.890227678E+01
3.190520000E-02 3.536000000E-01 4.353480000E+00 3.885886940E+01
3.194320000E-02 3.585100000E-01 4.357200000E+00 3.881264244E+01
3.200000000E-02 3.658200000E-01 4.362640000E+00 3.874375000E+01
3.201920000E-02 3.682800000E-01 4.364310000E+00 3.872051769E+01
3.209520000E-02 3.780100000E-01 4.370940000E+00 3.862882923E+01
3.217120000E-02 3.877300000E-01 4.377560000E+00 3.853757398E+01
3.224720000E-02 3.974500000E-01 4.384190000E+00 3.844674887E+01
3.237550000E-02 4.138600000E-01 4.395370000E+00 3.829438928E+01
3.239930000E-02 4.169000000E-01 4.397430000E+00 3.826625884E+01
3.245520000E-02 4.240500000E-01 4.402200000E+00 3.820035002E+01
3.253490000E-02 4.342200000E-01 4.408700000E+00 3.810677150E+01
3.261460000E-02 4.443900000E-01 4.415200000E+00 3.801365033E+01
3.277400000E-02 4.647300000E-01 4.428190000E+00 3.782876671E+01
3.293330000E-02 4.850700000E-01 4.441190000E+00 3.764578709E+01
3.309270000E-02 5.054100000E-01 4.454180000E+00 3.746445591E+01
3.349120000E-02 5.515500000E-01 4.486670000E+00 3.701867953E+01
3.397160000E-02 6.055800000E-01 4.525850000E+00 3.649519010E+01
3.413810000E-02 6.243000000E-01 4.539420000E+00 3.631719399E+01
3.427680000E-02 6.399000000E-01 4.550730000E+00 3.617023760E+01
3.465430000E-02 6.791300000E-01 4.577790000E+00 3.577622402E+01
3.486850000E-02 6.969300000E-01 4.592210000E+00 3.555644780E+01
3.521800000E-02 7.166200000E-01 4.617050000E+00 3.520358907E+01
3.593000000E-02 7.263600000E-01 4.751820000E+00 3.450598386E+01
3.703960000E-02 9.711500000E-01 4.932450000E+00 3.347228372E+01
3.973860000E-02 1.414590000E+00 5.126760000E+00 3.119888471E+01
4.731510000E-02 2.532240000E+00 5.451440000E+00 2.620305146E+01
5.677740000E-02 3.790990000E+00 5.517130000E+00 2.183615312E+01
6.760830000E-02 4.943320000E+00 5.259970000E+00 1.833798513E+01
7.897690000E-02 5.820550000E+00 4.812580000E+00 1.569826114E+01
8.871460000E-02 6.346570000E+00 4.393450000E+00 1.397515178E+01
1.004330000E-01 6.781740000E+00 3.909350000E+00 1.234454811E+01
