# Data retrieved from https://www-nds.iaea.org/epdl97/za1to100.htm 03/01/2021
# Element, Fe  (Z = 26) 
# Atomic weight, g mol-1 = 55.847 
# Nominal density, g cm-3 =  7.87400E+0 
# Relativistic correction estimate f_rel(5CL)*,  e atom-1 =  0 
# Nuclear Thomson correction f_NT*, e atom-1 =  0 
#    E [keV]      f1 [e atom-1]      f2 [e atom-1]    Wavelength [nm] 
1.000000000E-03 4.386300000E+00 0.000000000E+00 1.239800000E+03
1.125000000E-03 4.384800000E+00 0.000000000E+00 1.102044444E+03
1.265630000E-03 4.383100000E+00 0.000000000E+00 9.795911917E+02
1.423830000E-03 4.381100000E+00 0.000000000E+00 8.707500193E+02
1.601810000E-03 4.378900000E+00 0.000000000E+00 7.739994132E+02
1.802030000E-03 4.376500000E+00 0.000000000E+00 6.880018646E+02
2.027290000E-03 4.373300000E+00 0.000000000E+00 6.115553276E+02
2.246670000E-03 4.367700000E+00 0.000000000E+00 5.518389439E+02
2.438640000E-03 4.362800000E+00 0.000000000E+00 5.083981235E+02
2.606610000E-03 4.358500000E+00 0.000000000E+00 4.756369384E+02
2.753580000E-03 4.354700000E+00 0.000000000E+00 4.502502197E+02
2.882180000E-03 4.351400000E+00 0.000000000E+00 4.301605035E+02
2.994710000E-03 4.348500000E+00 0.000000000E+00 4.139966808E+02
3.093170000E-03 4.346000000E+00 0.000000000E+00 4.008185777E+02
3.179320000E-03 4.343800000E+00 0.000000000E+00 3.899576010E+02
3.254710000E-03 4.341800000E+00 0.000000000E+00 3.809248750E+02
3.320670000E-03 4.340100000E+00 0.000000000E+00 3.733583885E+02
3.378380000E-03 4.338700000E+00 0.000000000E+00 3.669806238E+02
3.479380000E-03 4.336100000E+00 0.000000000E+00 3.563278515E+02
3.555140000E-03 4.334100000E+00 0.000000000E+00 3.487345083E+02
3.611950000E-03 4.332700000E+00 0.000000000E+00 3.432494913E+02
3.654560000E-03 4.331600000E+00 0.000000000E+00 3.392474060E+02
3.686520000E-03 4.330800000E+00 0.000000000E+00 3.363063268E+02
3.710490000E-03 4.330100000E+00 0.000000000E+00 3.341337667E+02
3.746440000E-03 4.329200000E+00 0.000000000E+00 3.309274938E+02
3.764410000E-03 4.328800000E+00 0.000000000E+00 3.293477597E+02
3.782390000E-03 4.328300000E+00 0.000000000E+00 3.277821695E+02
3.791700000E-03 4.328100000E+00 0.000000000E+00 3.269773453E+02
3.801010000E-03 4.327800000E+00 0.000000000E+00 3.261764636E+02
3.810320000E-03 4.327600000E+00 0.000000000E+00 3.253794957E+02
3.819630000E-03 4.327300000E+00 0.000000000E+00 3.245864128E+02
3.820680000E-03 4.327300000E+00 0.000000000E+00 3.244972099E+02
3.830080000E-03 4.327100000E+00 0.000000000E+00 3.237008104E+02
3.839490000E-03 4.326800000E+00 0.000000000E+00 3.229074695E+02
3.848890000E-03 4.326600000E+00 0.000000000E+00 3.221188447E+02
3.858300000E-03 4.326300000E+00 0.000000000E+00 3.213332297E+02
3.867700000E-03 4.326100000E+00 0.000000000E+00 3.205522662E+02
3.871970000E-03 4.326000000E+00 0.000000000E+00 3.201987619E+02
3.878390000E-03 4.325800000E+00 0.000000000E+00 3.196687285E+02
3.884800000E-03 4.325700000E+00 0.000000000E+00 3.191412685E+02
3.890360000E-03 4.325500000E+00 0.000000000E+00 3.186851602E+02
3.893130000E-03 4.325400000E+00 0.000000000E+00 3.184584126E+02
3.895910000E-03 4.325400000E+00 0.000000000E+00 3.182311706E+02
3.902960000E-03 4.325200000E+00 0.000000000E+00 3.176563429E+02
3.907670000E-03 4.325100000E+00 0.000000000E+00 3.172734648E+02
3.911190000E-03 4.325000000E+00 0.000000000E+00 3.169879244E+02
3.912960000E-03 4.324900000E+00 0.000000000E+00 3.168445371E+02
3.913840000E-03 4.324900000E+00 0.000000000E+00 3.167732968E+02
3.914280000E-03 4.324900000E+00 0.000000000E+00 3.167376887E+02
3.915010000E-03 4.324900000E+00 0.000000000E+00 3.166786292E+02
3.915300000E-03 4.324900000E+00 0.000000000E+00 3.166551733E+02
3.924120000E-03 4.324700000E+00 0.000000000E+00 3.159434472E+02
3.926480000E-03 4.324600000E+00 0.000000000E+00 3.157535503E+02
3.933530000E-03 4.324400000E+00 0.000000000E+00 3.151876304E+02
3.937640000E-03 4.324300000E+00 0.000000000E+00 3.148586463E+02
3.943800000E-03 4.324100000E+00 0.000000000E+00 3.143668543E+02
3.949970000E-03 4.324000000E+00 0.000000000E+00 3.138758016E+02
3.955850000E-03 4.323800000E+00 0.000000000E+00 3.134092546E+02
3.961740000E-03 4.323700000E+00 0.000000000E+00 3.129433027E+02
3.971140000E-03 4.323400000E+00 0.000000000E+00 3.122025413E+02
3.980550000E-03 4.323200000E+00 0.000000000E+00 3.114644961E+02
3.989950000E-03 4.323000000E+00 0.000000000E+00 3.107307109E+02
4.004060000E-03 4.322500000E+00 0.000000000E+00 3.096357197E+02
4.008760000E-03 4.322200000E+00 0.000000000E+00 3.092726928E+02
4.012910000E-03 4.321900000E+00 0.000000000E+00 3.089528547E+02
4.021170000E-03 4.321500000E+00 0.000000000E+00 3.083182258E+02
4.029370000E-03 4.321000000E+00 0.000000000E+00 3.076907804E+02
4.045650000E-03 4.320000000E+00 0.000000000E+00 3.064526096E+02
4.061660000E-03 4.319100000E+00 0.000000000E+00 3.052446537E+02
4.077430000E-03 4.318100000E+00 0.000000000E+00 3.040640796E+02
4.092950000E-03 4.317200000E+00 0.000000000E+00 3.029111032E+02
4.108230000E-03 4.316300000E+00 0.000000000E+00 3.017844668E+02
4.138310000E-03 4.314500000E+00 0.000000000E+00 2.995908958E+02
4.167450000E-03 4.312800000E+00 0.000000000E+00 2.974960707E+02
4.195680000E-03 4.311200000E+00 0.000000000E+00 2.954944133E+02
4.223030000E-03 4.309500000E+00 0.000000000E+00 2.935806755E+02
4.249520000E-03 4.308000000E+00 0.000000000E+00 2.917505977E+02
4.275190000E-03 4.306500000E+00 0.000000000E+00 2.899988071E+02
4.300050000E-03 4.305000000E+00 0.000000000E+00 2.883222288E+02
4.324140000E-03 4.303600000E+00 0.000000000E+00 2.867159713E+02
4.347470000E-03 4.302200000E+00 0.000000000E+00 2.851773560E+02
4.358770000E-03 4.301500000E+00 0.000000000E+00 2.844380410E+02
4.536780000E-03 4.291000000E+00 0.000000000E+00 2.732775228E+02
4.603530000E-03 4.287100000E+00 0.000000000E+00 2.693150691E+02
4.661940000E-03 4.283600000E+00 0.000000000E+00 2.659407886E+02
4.713050000E-03 4.280600000E+00 0.000000000E+00 2.630568316E+02
4.757770000E-03 4.278000000E+00 0.000000000E+00 2.605842653E+02
4.796890000E-03 4.275600000E+00 0.000000000E+00 2.584591266E+02
4.831130000E-03 4.273600000E+00 0.000000000E+00 2.566273315E+02
4.861090000E-03 4.271900000E+00 0.000000000E+00 2.550456791E+02
4.887300000E-03 4.270300000E+00 0.000000000E+00 2.536778999E+02
4.933180000E-03 4.267600000E+00 0.000000000E+00 2.513186221E+02
4.967580000E-03 4.265600000E+00 0.000000000E+00 2.495782655E+02
4.993390000E-03 4.264000000E+00 0.000000000E+00 2.482882370E+02
5.012740000E-03 4.262900000E+00 0.000000000E+00 2.473298037E+02
5.027250000E-03 4.262000000E+00 0.000000000E+00 2.466159431E+02
5.049030000E-03 4.260800000E+00 0.000000000E+00 2.455521160E+02
5.059910000E-03 4.260100000E+00 0.000000000E+00 2.450241210E+02
5.065360000E-03 4.259800000E+00 0.000000000E+00 2.447604909E+02
5.070800000E-03 4.259500000E+00 0.000000000E+00 2.444979096E+02
5.083280000E-03 4.258700000E+00 0.000000000E+00 2.438976409E+02
5.095760000E-03 4.258000000E+00 0.000000000E+00 2.433003124E+02
5.108240000E-03 4.257300000E+00 0.000000000E+00 2.427059026E+02
5.120720000E-03 4.256500000E+00 0.000000000E+00 2.421143902E+02
5.133200000E-03 4.255800000E+00 0.000000000E+00 2.415257539E+02
5.139440000E-03 4.255400000E+00 0.000000000E+00 2.412325078E+02
5.145690000E-03 4.255000000E+00 0.000000000E+00 2.409395047E+02
5.151930000E-03 4.254700000E+00 0.000000000E+00 2.406476796E+02
5.158170000E-03 4.254300000E+00 0.000000000E+00 2.403565606E+02
5.164410000E-03 4.253900000E+00 0.000000000E+00 2.400661450E+02
5.170650000E-03 4.253600000E+00 0.000000000E+00 2.397764304E+02
5.176890000E-03 4.253200000E+00 0.000000000E+00 2.394874143E+02
5.180010000E-03 4.253000000E+00 0.000000000E+00 2.393431673E+02
5.183130000E-03 4.252800000E+00 0.000000000E+00 2.391990940E+02
5.186250000E-03 4.252600000E+00 0.000000000E+00 2.390551940E+02
5.190930000E-03 4.252400000E+00 0.000000000E+00 2.388396684E+02
5.193270000E-03 4.252200000E+00 0.000000000E+00 2.387320513E+02
5.194440000E-03 4.252200000E+00 0.000000000E+00 2.386782791E+02
5.194730000E-03 4.252100000E+00 0.000000000E+00 2.386649547E+02
5.194840000E-03 4.252100000E+00 0.000000000E+00 2.386599010E+02
5.194940000E-03 4.252100000E+00 0.000000000E+00 2.386553069E+02
5.195110000E-03 4.252100000E+00 0.000000000E+00 2.386474974E+02
5.195360000E-03 4.252100000E+00 0.000000000E+00 2.386360137E+02
5.195480000E-03 4.252100000E+00 0.000000000E+00 2.386305019E+02
5.195810000E-03 4.252100000E+00 0.000000000E+00 2.386153458E+02
5.196570000E-03 4.252000000E+00 0.000000000E+00 2.385804483E+02
5.208090000E-03 4.251400000E+00 0.000000000E+00 2.380527218E+02
5.211210000E-03 4.251200000E+00 0.000000000E+00 2.379101974E+02
5.220570000E-03 4.250600000E+00 0.000000000E+00 2.374836464E+02
5.226810000E-03 4.250300000E+00 0.000000000E+00 2.372001278E+02
5.233050000E-03 4.249900000E+00 0.000000000E+00 2.369172853E+02
5.239290000E-03 4.249500000E+00 0.000000000E+00 2.366351166E+02
5.245530000E-03 4.249100000E+00 0.000000000E+00 2.363536192E+02
5.251780000E-03 4.248800000E+00 0.000000000E+00 2.360723412E+02
5.258020000E-03 4.248400000E+00 0.000000000E+00 2.357921803E+02
5.270500000E-03 4.247700000E+00 0.000000000E+00 2.352338488E+02
5.282980000E-03 4.246900000E+00 0.000000000E+00 2.346781551E+02
5.295460000E-03 4.246200000E+00 0.000000000E+00 2.341250807E+02
5.307940000E-03 4.245500000E+00 0.000000000E+00 2.335746071E+02
5.320420000E-03 4.244700000E+00 0.000000000E+00 2.330267159E+02
5.328330000E-03 4.244300000E+00 0.000000000E+00 2.326807837E+02
5.343900000E-03 4.243300000E+00 0.000000000E+00 2.320028444E+02
5.358980000E-03 4.242400000E+00 0.000000000E+00 2.313499957E+02
5.388210000E-03 4.240700000E+00 0.000000000E+00 2.300949666E+02
5.415610000E-03 4.239100000E+00 0.000000000E+00 2.289308130E+02
5.441290000E-03 4.237600000E+00 0.000000000E+00 2.278503811E+02
5.489450000E-03 4.234700000E+00 0.000000000E+00 2.258514059E+02
5.531590000E-03 4.232300000E+00 0.000000000E+00 2.241308557E+02
5.614400000E-03 4.227400000E+00 0.000000000E+00 2.208250214E+02
5.660650000E-03 4.223300000E+00 0.000000000E+00 2.190207838E+02
5.826580000E-03 4.208600000E+00 0.000000000E+00 2.127834853E+02
5.836540000E-03 4.207700000E+00 0.000000000E+00 2.124203723E+02
5.865270000E-03 4.205200000E+00 0.000000000E+00 2.113798683E+02
5.879640000E-03 4.203900000E+00 0.000000000E+00 2.108632501E+02
5.892180000E-03 4.202800000E+00 0.000000000E+00 2.104144816E+02
5.894000000E-03 4.202700000E+00 0.000000000E+00 2.103495080E+02
5.908370000E-03 4.201400000E+00 0.000000000E+00 2.098379079E+02
5.922740000E-03 4.200100000E+00 0.000000000E+00 2.093287904E+02
5.937100000E-03 4.198900000E+00 0.000000000E+00 2.088224891E+02
5.955650000E-03 4.197200000E+00 0.000000000E+00 2.081720719E+02
5.969990000E-03 4.195900000E+00 0.000000000E+00 2.076720397E+02
5.984330000E-03 4.194700000E+00 0.000000000E+00 2.071744038E+02
5.998670000E-03 4.193400000E+00 0.000000000E+00 2.066791472E+02
6.008930000E-03 4.192500000E+00 0.000000000E+00 2.063262511E+02
6.023300000E-03 4.191200000E+00 0.000000000E+00 2.058340113E+02
6.037660000E-03 4.190000000E+00 0.000000000E+00 2.053444546E+02
6.052160000E-03 4.188700000E+00 0.000000000E+00 2.048524824E+02
6.070380000E-03 4.187100000E+00 0.000000000E+00 2.042376260E+02
6.084720000E-03 4.185800000E+00 0.000000000E+00 2.037562945E+02
6.099060000E-03 4.184500000E+00 0.000000000E+00 2.032772263E+02
6.110180000E-03 4.183600000E+00 0.000000000E+00 2.029072793E+02
6.124680000E-03 4.182300000E+00 0.000000000E+00 2.024269023E+02
6.139190000E-03 4.181000000E+00 0.000000000E+00 2.019484655E+02
6.153230000E-03 4.179800000E+00 0.000000000E+00 2.014876740E+02
6.168200000E-03 4.178400000E+00 0.000000000E+00 2.009986706E+02
6.182240000E-03 4.177200000E+00 0.000000000E+00 2.005421983E+02
6.182700000E-03 4.177200000E+00 0.000000000E+00 2.005272777E+02
6.223310000E-03 4.173600000E+00 0.000000000E+00 1.992187437E+02
6.294370000E-03 4.167300000E+00 0.000000000E+00 1.969696729E+02
6.507550000E-03 4.148500000E+00 0.000000000E+00 1.905171685E+02
6.511610000E-03 4.148100000E+00 0.000000000E+00 1.903983807E+02
6.528770000E-03 4.146600000E+00 0.000000000E+00 1.898979440E+02
6.543660000E-03 4.145300000E+00 0.000000000E+00 1.894658341E+02
6.560910000E-03 4.143700000E+00 0.000000000E+00 1.889676889E+02
6.576980000E-03 4.142300000E+00 0.000000000E+00 1.885059708E+02
6.593050000E-03 4.140900000E+00 0.000000000E+00 1.880465035E+02
6.609120000E-03 4.139500000E+00 0.000000000E+00 1.875892706E+02
6.627710000E-03 4.137800000E+00 0.000000000E+00 1.870631032E+02
6.646300000E-03 4.136200000E+00 0.000000000E+00 1.865398793E+02
6.657330000E-03 4.135200000E+00 0.000000000E+00 1.862308163E+02
6.673400000E-03 4.133800000E+00 0.000000000E+00 1.857823598E+02
6.689470000E-03 4.132400000E+00 0.000000000E+00 1.853360580E+02
6.705540000E-03 4.131000000E+00 0.000000000E+00 1.848918954E+02
6.721610000E-03 4.129600000E+00 0.000000000E+00 1.844498565E+02
6.758880000E-03 4.126300000E+00 0.000000000E+00 1.834327581E+02
6.769820000E-03 4.125300000E+00 0.000000000E+00 1.831363315E+02
6.785890000E-03 4.123900000E+00 0.000000000E+00 1.827026374E+02
6.801960000E-03 4.122500000E+00 0.000000000E+00 1.822709925E+02
6.818030000E-03 4.121000000E+00 0.000000000E+00 1.818413823E+02
6.827910000E-03 4.120200000E+00 0.000000000E+00 1.815782575E+02
6.832150000E-03 4.119800000E+00 0.000000000E+00 1.814655709E+02
6.850170000E-03 4.118200000E+00 0.000000000E+00 1.809882091E+02
6.861180000E-03 4.117200000E+00 0.000000000E+00 1.806977808E+02
6.869730000E-03 4.116500000E+00 0.000000000E+00 1.804728861E+02
6.877980000E-03 4.115700000E+00 0.000000000E+00 1.802564125E+02
6.886520000E-03 4.115000000E+00 0.000000000E+00 1.800328758E+02
6.894790000E-03 4.114300000E+00 0.000000000E+00 1.798169342E+02
6.911590000E-03 4.112800000E+00 0.000000000E+00 1.793798533E+02
6.953660000E-03 4.109100000E+00 0.000000000E+00 1.782945959E+02
6.970440000E-03 4.107600000E+00 0.000000000E+00 1.778653858E+02
6.984160000E-03 4.106400000E+00 0.000000000E+00 1.775159790E+02
6.995620000E-03 4.105300000E+00 0.000000000E+00 1.772251780E+02
7.012430000E-03 4.103900000E+00 0.000000000E+00 1.768003388E+02
7.029230000E-03 4.102400000E+00 0.000000000E+00 1.763777825E+02
7.071300000E-03 4.098700000E+00 0.000000000E+00 1.753284403E+02
7.084230000E-03 4.097500000E+00 0.000000000E+00 1.750084342E+02
7.096450000E-03 4.096400000E+00 0.000000000E+00 1.747070718E+02
7.113260000E-03 4.095000000E+00 0.000000000E+00 1.742942055E+02
7.130060000E-03 4.093500000E+00 0.000000000E+00 1.738835297E+02
7.154720000E-03 4.091300000E+00 0.000000000E+00 1.732842096E+02
7.163670000E-03 4.090500000E+00 0.000000000E+00 1.730677153E+02
7.193550000E-03 4.087900000E+00 0.000000000E+00 1.723488403E+02
7.247890000E-03 4.080900000E+00 4.046790000E-07 1.710566799E+02
7.274160000E-03 4.075100000E+00 3.065340000E-06 1.704389235E+02
7.295710000E-03 4.069800000E+00 1.387380000E-05 1.699354826E+02
7.328060000E-03 4.060600000E+00 1.047920000E-04 1.691852960E+02
7.392400000E-03 4.034800000E+00 2.542800000E-03 1.677127861E+02
7.464310000E-03 3.990800000E+00 2.689560000E-02 1.660970672E+02
7.538480000E-03 3.970600000E+00 9.832500000E-02 1.644628625E+02
7.626780000E-03 4.023400000E+00 1.607090000E-01 1.625587732E+02
7.723500000E-03 4.076000000E+00 1.616980000E-01 1.605230789E+02
8.055040000E-03 4.126100000E+00 1.264800000E-01 1.539160575E+02
8.345440000E-03 4.119900000E+00 1.013800000E-01 1.485601718E+02
8.526460000E-03 4.109400000E+00 8.813050000E-02 1.454061826E+02
8.659640000E-03 4.099800000E+00 7.933530000E-02 1.431699239E+02
8.754040000E-03 4.092100000E+00 7.360770000E-02 1.416260378E+02
8.798560000E-03 4.088300000E+00 7.103670000E-02 1.409094215E+02
8.843090000E-03 4.084500000E+00 6.849420000E-02 1.401998623E+02
8.864850000E-03 4.082500000E+00 6.732320000E-02 1.398557223E+02
8.886620000E-03 4.080500000E+00 6.615220000E-02 1.395131107E+02
8.908390000E-03 4.078600000E+00 6.498120000E-02 1.391721736E+02
8.919270000E-03 4.077600000E+00 6.439570000E-02 1.390024071E+02
8.930150000E-03 4.076600000E+00 6.381020000E-02 1.388330543E+02
8.942740000E-03 4.075500000E+00 6.314850000E-02 1.386375988E+02
8.951920000E-03 4.074600000E+00 6.268600000E-02 1.384954289E+02
8.961610000E-03 4.073700000E+00 6.219790000E-02 1.383456767E+02
8.968880000E-03 4.073000000E+00 6.183180000E-02 1.382335364E+02
8.979780000E-03 4.072000000E+00 6.128270000E-02 1.380657433E+02
8.990690000E-03 4.070900000E+00 6.073350000E-02 1.378982036E+02
9.003840000E-03 4.069700000E+00 6.007120000E-02 1.376968049E+02
9.010410000E-03 4.069100000E+00 5.974010000E-02 1.375964024E+02
9.016990000E-03 4.068400000E+00 5.940890000E-02 1.374959937E+02
9.028090000E-03 4.067400000E+00 5.887420000E-02 1.373269429E+02
9.039180000E-03 4.066300000E+00 5.834540000E-02 1.371584591E+02
9.055280000E-03 4.064700000E+00 5.757850000E-02 1.369145957E+02
9.061380000E-03 4.064100000E+00 5.728780000E-02 1.368224266E+02
9.083570000E-03 4.062000000E+00 5.623010000E-02 1.364881869E+02
9.104280000E-03 4.059900000E+00 5.526720000E-02 1.361777098E+02
9.126050000E-03 4.057800000E+00 5.429300000E-02 1.358528608E+02
9.138100000E-03 4.056600000E+00 5.375360000E-02 1.356737177E+02
9.150150000E-03 4.055400000E+00 5.321420000E-02 1.354950465E+02
9.161250000E-03 4.054300000E+00 5.271750000E-02 1.353308773E+02
9.177900000E-03 4.052600000E+00 5.197250000E-02 1.350853681E+02
9.186220000E-03 4.051800000E+00 5.160000000E-02 1.349630207E+02
9.197220000E-03 4.050700000E+00 5.110780000E-02 1.348016031E+02
9.205640000E-03 4.049800000E+00 5.075300000E-02 1.346783059E+02
9.211190000E-03 4.049300000E+00 5.051930000E-02 1.345971585E+02
9.213960000E-03 4.049000000E+00 5.040250000E-02 1.345566944E+02
9.219510000E-03 4.048400000E+00 5.016870000E-02 1.344756934E+02
9.229220000E-03 4.047400000E+00 4.975980000E-02 1.343342124E+02
9.230430000E-03 4.047300000E+00 4.970860000E-02 1.343166028E+02
9.232960000E-03 4.047000000E+00 4.960240000E-02 1.342797976E+02
9.235940000E-03 4.046700000E+00 4.947660000E-02 1.342364719E+02
9.237440000E-03 4.046600000E+00 4.941370000E-02 1.342146742E+02
9.238930000E-03 4.046400000E+00 4.935080000E-02 1.341930288E+02
9.261120000E-03 4.044100000E+00 4.841600000E-02 1.338714972E+02
9.283320000E-03 4.041900000E+00 4.749960000E-02 1.335513588E+02
9.294420000E-03 4.040700000E+00 4.705620000E-02 1.333918631E+02
9.305510000E-03 4.039500000E+00 4.661280000E-02 1.332328911E+02
9.316610000E-03 4.038400000E+00 4.616940000E-02 1.330741547E+02
9.333260000E-03 4.036700000E+00 4.550420000E-02 1.328367580E+02
9.349900000E-03 4.034900000E+00 4.483940000E-02 1.326003487E+02
9.372100000E-03 4.032600000E+00 4.399860000E-02 1.322862539E+02
9.394290000E-03 4.030200000E+00 4.315790000E-02 1.319737841E+02
9.411890000E-03 4.028400000E+00 4.249110000E-02 1.317269964E+02
9.416480000E-03 4.027900000E+00 4.231710000E-02 1.316627869E+02
9.434180000E-03 4.026000000E+00 4.166560000E-02 1.314157669E+02
9.456470000E-03 4.023600000E+00 4.086580000E-02 1.311060047E+02
9.460870000E-03 4.023100000E+00 4.070780000E-02 1.310450307E+02
9.478760000E-03 4.021200000E+00 4.006610000E-02 1.307976993E+02
9.501080000E-03 4.018800000E+00 3.926520000E-02 1.304904285E+02
9.540450000E-03 4.014600000E+00 3.792990000E-02 1.299519415E+02
9.580000000E-03 4.010300000E+00 3.658850000E-02 1.294154489E+02
9.646660000E-03 4.003000000E+00 3.446180000E-02 1.285211669E+02
9.767870000E-03 3.989600000E+00 3.081270000E-02 1.269263412E+02
1.008730000E-02 3.953700000E+00 2.261880000E-02 1.229070217E+02
1.013150000E-02 3.948100000E+00 2.164450000E-02 1.223708237E+02
1.018140000E-02 3.940700000E+00 2.056730000E-02 1.217710727E+02
1.020630000E-02 3.936700000E+00 2.004580000E-02 1.214739916E+02
1.023130000E-02 3.932400000E+00 1.953720000E-02 1.211771720E+02
1.025620000E-02 3.928100000E+00 1.904450000E-02 1.208829781E+02
