# Data retrieved from https://www-nds.iaea.org/epdl97/za1to100.htm 03/01/2021
# Element, H  (Z = 1) 
# Atomic weight, g mol-1 = 1.008 
# Nominal density, g cm-3 =  8.98800E-5 
# Relativistic correction estimate f_rel(5CL)*,  e atom-1 =  0 
# Nuclear Thomson correction f_NT*, e atom-1 =  0 
#    E [keV]      f1 [e atom-1]      f2 [e atom-1]    Wavelength [nm] 
1.000000000E-03 5.642470000E-01 0.000000000E+00 1.239800000E+03
1.500000000E-03 5.625240000E-01 0.000000000E+00 8.265333333E+02
1.687500000E-03 5.618780000E-01 0.000000000E+00 7.346962963E+02
1.898440000E-03 5.611510000E-01 0.000000000E+00 6.530625145E+02
2.000000000E-03 5.608010000E-01 0.000000000E+00 6.199000000E+02
2.135740000E-03 5.598130000E-01 0.000000000E+00 5.805013719E+02
2.402710000E-03 5.578680000E-01 0.000000000E+00 5.160006826E+02
2.703050000E-03 5.556810000E-01 0.000000000E+00 4.586670613E+02
3.040930000E-03 5.532200000E-01 0.000000000E+00 4.077042221E+02
3.421050000E-03 5.504520000E-01 0.000000000E+00 3.624033557E+02
3.848680000E-03 5.473380000E-01 0.000000000E+00 3.221364208E+02
4.000000000E-03 5.462360000E-01 0.000000000E+00 3.099500000E+02
4.329760000E-03 5.416980000E-01 0.000000000E+00 2.863438158E+02
4.870980000E-03 5.342500000E-01 0.000000000E+00 2.545278363E+02
5.175420000E-03 5.300600000E-01 0.000000000E+00 2.395554370E+02
5.474410000E-03 5.259460000E-01 0.000000000E+00 2.264718938E+02
6.035020000E-03 5.179390000E-01 0.000000000E+00 2.054342819E+02
6.525550000E-03 5.070910000E-01 0.000000000E+00 1.899916482E+02
6.954760000E-03 4.975990000E-01 0.000000000E+00 1.782663960E+02
7.330320000E-03 4.892940000E-01 0.000000000E+00 1.691331347E+02
7.658940000E-03 4.802490000E-01 0.000000000E+00 1.618761865E+02
7.946480000E-03 4.706730000E-01 0.000000000E+00 1.560187655E+02
8.198080000E-03 4.622940000E-01 0.000000000E+00 1.512305320E+02
8.418230000E-03 4.549630000E-01 0.000000000E+00 1.472756149E+02
8.610860000E-03 4.485480000E-01 0.000000000E+00 1.439809729E+02
8.779410000E-03 4.429340000E-01 0.000000000E+00 1.412167788E+02
8.926890000E-03 4.374630000E-01 0.000000000E+00 1.388837546E+02
9.055940000E-03 4.311270000E-01 0.000000000E+00 1.369046173E+02
9.168850000E-03 4.255840000E-01 0.000000000E+00 1.352187025E+02
9.267660000E-03 4.207340000E-01 0.000000000E+00 1.337770268E+02
9.354110000E-03 4.164900000E-01 0.000000000E+00 1.325406693E+02
9.429750000E-03 4.127760000E-01 0.000000000E+00 1.314775047E+02
9.562130000E-03 4.062780000E-01 0.000000000E+00 1.296573044E+02
9.661410000E-03 4.014040000E-01 0.000000000E+00 1.283249546E+02
9.735880000E-03 3.977480000E-01 0.000000000E+00 1.273433937E+02
9.791720000E-03 3.950060000E-01 0.000000000E+00 1.266171827E+02
9.833610000E-03 3.929500000E-01 0.000000000E+00 1.260778087E+02
9.865020000E-03 3.914080000E-01 0.000000000E+00 1.256763798E+02
9.912140000E-03 3.890950000E-01 0.000000000E+00 1.250789436E+02
9.935700000E-03 3.879230000E-01 0.000000000E+00 1.247823505E+02
9.947490000E-03 3.871050000E-01 0.000000000E+00 1.246344555E+02
9.959270000E-03 3.862880000E-01 0.000000000E+00 1.244870357E+02
9.983780000E-03 3.845870000E-01 0.000000000E+00 1.241814223E+02
1.000830000E-02 3.828860000E-01 0.000000000E+00 1.238771819E+02
1.003280000E-02 3.811850000E-01 0.000000000E+00 1.235746751E+02
1.005730000E-02 3.794840000E-01 0.000000000E+00 1.232736420E+02
1.008180000E-02 3.777830000E-01 0.000000000E+00 1.229740721E+02
1.009410000E-02 3.769330000E-01 0.000000000E+00 1.228242241E+02
1.010630000E-02 3.760820000E-01 0.000000000E+00 1.226759546E+02
1.011860000E-02 3.752320000E-01 0.000000000E+00 1.225268318E+02
1.013090000E-02 3.743820000E-01 0.000000000E+00 1.223780710E+02
1.014310000E-02 3.735310000E-01 0.000000000E+00 1.222308762E+02
1.015540000E-02 3.726810000E-01 0.000000000E+00 1.220828328E+02
1.017380000E-02 3.714050000E-01 0.000000000E+00 1.218620378E+02
1.018600000E-02 3.705540000E-01 0.000000000E+00 1.217160809E+02
1.019520000E-02 3.699170000E-01 0.000000000E+00 1.216062461E+02
1.019980000E-02 3.695980000E-01 0.000000000E+00 1.215514030E+02
1.020210000E-02 3.694380000E-01 0.000000000E+00 1.215240000E+02
1.020330000E-02 3.693580000E-01 0.000000000E+00 1.215097076E+02
1.020380000E-02 3.693190000E-01 0.000000000E+00 1.215037535E+02
1.020410000E-02 3.692990000E-01 0.000000000E+00 1.215001813E+02
1.020430000E-02 3.692890000E-01 0.000000000E+00 1.214977999E+02
1.020440000E-02 3.692790000E-01 0.000000000E+00 1.214966093E+02
1.020450000E-02 3.692720000E-01 0.000000000E+00 1.214954187E+02
1.020470000E-02 3.692590000E-01 0.000000000E+00 1.214930375E+02
1.020490000E-02 3.692420000E-01 0.000000000E+00 1.214906564E+02
1.020510000E-02 3.692290000E-01 0.000000000E+00 1.214882755E+02
1.022890000E-02 3.675780000E-01 0.000000000E+00 1.212056037E+02
1.023500000E-02 3.671530000E-01 0.000000000E+00 1.211333659E+02
1.025340000E-02 3.658770000E-01 0.000000000E+00 1.209159888E+02
1.026570000E-02 3.650260000E-01 0.000000000E+00 1.207711116E+02
1.027790000E-02 3.641760000E-01 0.000000000E+00 1.206277547E+02
1.029020000E-02 3.633250000E-01 0.000000000E+00 1.204835669E+02
1.030250000E-02 3.624750000E-01 0.000000000E+00 1.203397234E+02
1.031470000E-02 3.616250000E-01 0.000000000E+00 1.201973882E+02
1.032700000E-02 3.607740000E-01 0.000000000E+00 1.200542268E+02
1.035150000E-02 3.590730000E-01 0.000000000E+00 1.197700816E+02
1.037600000E-02 3.573720000E-01 0.000000000E+00 1.194872783E+02
1.040050000E-02 3.556710000E-01 0.000000000E+00 1.192058074E+02
1.042500000E-02 3.539700000E-01 0.000000000E+00 1.189256595E+02
1.044950000E-02 3.522690000E-01 0.000000000E+00 1.186468252E+02
1.046010000E-02 3.515350000E-01 0.000000000E+00 1.185265915E+02
1.048110000E-02 3.500790000E-01 0.000000000E+00 1.182891109E+02
1.050180000E-02 3.486450000E-01 0.000000000E+00 1.180559523E+02
1.054240000E-02 3.458220000E-01 0.000000000E+00 1.176013052E+02
1.058190000E-02 3.430880000E-01 0.000000000E+00 1.171623243E+02
1.062000000E-02 3.404390000E-01 0.000000000E+00 1.167419962E+02
1.069400000E-02 3.353060000E-01 0.000000000E+00 1.159341687E+02
1.076340000E-02 3.293270000E-01 0.000000000E+00 1.151866511E+02
1.174490000E-02 2.224710000E-01 0.000000000E+00 1.055607115E+02
1.180360000E-02 2.129110000E-01 0.000000000E+00 1.050357518E+02
1.181080000E-02 2.117280000E-01 0.000000000E+00 1.049717208E+02
1.183260000E-02 2.081800000E-01 0.000000000E+00 1.047783243E+02
1.184710000E-02 2.058150000E-01 0.000000000E+00 1.046500831E+02
1.186170000E-02 2.034490000E-01 0.000000000E+00 1.045212744E+02
1.189070000E-02 1.987190000E-01 0.000000000E+00 1.042663594E+02
1.191980000E-02 1.939880000E-01 0.000000000E+00 1.040118123E+02
1.193430000E-02 1.916230000E-01 0.000000000E+00 1.038854394E+02
1.194880000E-02 1.892570000E-01 0.000000000E+00 1.037593733E+02
1.196340000E-02 1.868920000E-01 0.000000000E+00 1.036327465E+02
1.197790000E-02 1.845270000E-01 0.000000000E+00 1.035072926E+02
1.199240000E-02 1.821610000E-01 0.000000000E+00 1.033821420E+02
1.200690000E-02 1.797960000E-01 0.000000000E+00 1.032572937E+02
1.202150000E-02 1.774310000E-01 0.000000000E+00 1.031318887E+02
1.202870000E-02 1.762480000E-01 0.000000000E+00 1.030701572E+02
1.203600000E-02 1.750650000E-01 0.000000000E+00 1.030076437E+02
1.205050000E-02 1.727000000E-01 0.000000000E+00 1.028836978E+02
1.205780000E-02 1.715170000E-01 0.000000000E+00 1.028214102E+02
1.206140000E-02 1.709260000E-01 0.000000000E+00 1.027907208E+02
1.206320000E-02 1.706300000E-01 0.000000000E+00 1.027753830E+02
1.206410000E-02 1.704820000E-01 0.000000000E+00 1.027677158E+02
1.206600000E-02 1.701870000E-01 0.000000000E+00 1.027515332E+02
1.206940000E-02 1.696320000E-01 0.000000000E+00 1.027225877E+02
1.208170000E-02 1.673380000E-01 0.000000000E+00 1.026180091E+02
1.208790000E-02 1.660720000E-01 0.000000000E+00 1.025653753E+02
1.209100000E-02 1.654390000E-01 0.000000000E+00 1.025390787E+02
1.209410000E-02 1.648060000E-01 0.000000000E+00 1.025127955E+02
1.212320000E-02 1.588600000E-01 0.000000000E+00 1.022667283E+02
1.213040000E-02 1.573740000E-01 0.000000000E+00 1.022060278E+02
1.215220000E-02 1.529140000E-01 0.000000000E+00 1.020226790E+02
1.216670000E-02 1.499410000E-01 0.000000000E+00 1.019010907E+02
1.218130000E-02 1.469670000E-01 0.000000000E+00 1.017789563E+02
1.219580000E-02 1.439940000E-01 0.000000000E+00 1.016579478E+02
1.221030000E-02 1.410210000E-01 0.000000000E+00 1.015372268E+02
1.223940000E-02 1.350750000E-01 0.000000000E+00 1.012958152E+02
1.226840000E-02 1.291280000E-01 0.000000000E+00 1.010563725E+02
1.229750000E-02 1.231820000E-01 0.000000000E+00 1.008172393E+02
1.232650000E-02 1.171050000E-01 0.000000000E+00 1.005800511E+02
1.235560000E-02 1.101720000E-01 0.000000000E+00 1.003431642E+02
1.238460000E-02 1.032380000E-01 0.000000000E+00 1.001081989E+02
1.240070000E-02 9.939300000E-02 0.000000000E+00 9.997822704E+01
1.244910000E-02 8.712200000E-02 0.000000000E+00 9.958952856E+01
1.247970000E-02 7.913900000E-02 0.000000000E+00 9.934533683E+01
1.251040000E-02 7.085300000E-02 0.000000000E+00 9.910154751E+01
1.254100000E-02 6.218600000E-02 0.000000000E+00 9.885974005E+01
1.257160000E-02 5.343500000E-02 0.000000000E+00 9.861910974E+01
1.258700000E-02 4.875700000E-02 0.000000000E+00 9.849845078E+01
1.260230000E-02 4.407900000E-02 0.000000000E+00 9.837886735E+01
1.261000000E-02 4.174000000E-02 0.000000000E+00 9.831879461E+01
1.262140000E-02 3.823100000E-02 0.000000000E+00 9.822999033E+01
1.263290000E-02 3.465900000E-02 0.000000000E+00 9.814056947E+01
1.264060000E-02 3.214800000E-02 0.000000000E+00 9.808078730E+01
1.265210000E-02 2.838100000E-02 0.000000000E+00 9.799163775E+01
1.266360000E-02 2.461400000E-02 0.000000000E+00 9.790265012E+01
1.267890000E-02 1.959200000E-02 0.000000000E+00 9.778450812E+01
1.268660000E-02 1.703600000E-02 0.000000000E+00 9.772515883E+01
1.269420000E-02 1.435400000E-02 0.000000000E+00 9.766665091E+01
1.270950000E-02 8.990000000E-03 0.000000000E+00 9.754907746E+01
1.272490000E-02 3.627000000E-03 0.000000000E+00 9.743102107E+01
1.275550000E-02 -7.610000000E-03 0.000000000E+00 9.719728744E+01
1.278610000E-02 -1.927000000E-02 0.000000000E+00 9.696467257E+01
1.281680000E-02 -3.152000000E-02 0.000000000E+00 9.673241371E+01
1.284740000E-02 -4.453000000E-02 0.000000000E+00 9.650201597E+01
1.287810000E-02 -5.769000000E-02 0.000000000E+00 9.627196558E+01
1.291010000E-02 -7.258000000E-02 0.000000000E+00 9.603333824E+01
1.294190000E-02 -8.837000000E-02 0.000000000E+00 9.579737133E+01
1.297370000E-02 -1.047900000E-01 0.000000000E+00 9.556256118E+01
1.299380000E-02 -1.151800000E-01 0.000000000E+00 9.541473626E+01
1.300800000E-02 -1.236500000E-01 0.000000000E+00 9.531057811E+01
1.303130000E-02 -1.375000000E-01 0.000000000E+00 9.514016253E+01
1.307250000E-02 -1.623900000E-01 7.490200000E-07 9.484031364E+01
1.310080000E-02 -1.815300000E-01 2.778990000E-06 9.463544211E+01
1.312350000E-02 -1.978500000E-01 7.485380000E-06 9.447174915E+01
1.312730000E-02 -2.006700000E-01 8.793560000E-06 9.444440212E+01
1.313610000E-02 -2.073600000E-01 1.274190000E-05 9.438113291E+01
1.316360000E-02 -2.292600000E-01 3.854270000E-05 9.418396183E+01
1.319630000E-02 -2.578700000E-01 1.324110000E-04 9.395057706E+01
1.323120000E-02 -2.919600000E-01 4.444280000E-04 9.370276317E+01
1.326450000E-02 -3.290600000E-01 1.285000000E-03 9.346752610E+01
1.329540000E-02 -3.686800000E-01 3.182180000E-03 9.325029710E+01
1.332480000E-02 -4.117900000E-01 6.993850000E-03 9.304454851E+01
1.335340000E-02 -4.600800000E-01 1.413500000E-02 9.284526787E+01
1.336230000E-02 -4.764400000E-01 1.737440000E-02 9.278342800E+01
1.339060000E-02 -5.330600000E-01 3.218560000E-02 9.258733739E+01
1.342250000E-02 -6.040500000E-01 5.996790000E-02 9.236729372E+01
1.344720000E-02 -6.632000000E-01 9.254490000E-02 9.219763222E+01
1.348740000E-02 -7.604600000E-01 1.712070000E-01 9.192283168E+01
1.350340000E-02 -7.967700000E-01 2.122100000E-01 9.181391353E+01
1.352360000E-02 -8.388900000E-01 2.720090000E-01 9.167677246E+01
1.353400000E-02 -8.580700000E-01 3.063850000E-01 9.160632481E+01
1.355150000E-02 -8.857000000E-01 3.684670000E-01 9.148802716E+01
1.356510000E-02 -9.021600000E-01 4.198140000E-01 9.139630375E+01
1.358050000E-02 -9.152800000E-01 4.812040000E-01 9.129266227E+01
1.359970000E-02 -9.203400000E-01 5.602620000E-01 9.116377567E+01
1.360640000E-02 -9.221000000E-01 5.878200000E-01 9.111888523E+01
1.363230000E-02 -9.101700000E-01 6.948380000E-01 9.094576851E+01
1.365310000E-02 -8.868400000E-01 7.776950000E-01 9.080721594E+01
1.365700000E-02 -8.806000000E-01 7.919710000E-01 9.078128432E+01
1.367270000E-02 -8.551300000E-01 8.502310000E-01 9.067704257E+01
1.369110000E-02 -8.180600000E-01 9.122210000E-01 9.055517818E+01
1.370120000E-02 -7.947500000E-01 9.426010000E-01 9.048842437E+01
1.370840000E-02 -7.781800000E-01 9.641830000E-01 9.044089755E+01
1.373980000E-02 -6.972700000E-01 1.042040000E+00 9.023421010E+01
1.375410000E-02 -6.584500000E-01 1.070290000E+00 9.014039450E+01
1.377390000E-02 -6.051900000E-01 1.102480000E+00 9.001081756E+01
1.378760000E-02 -5.678700000E-01 1.120190000E+00 8.992137863E+01
1.379890000E-02 -5.387600000E-01 1.131780000E+00 8.984774149E+01
1.384570000E-02 -4.240200000E-01 1.164760000E+00 8.954404617E+01
1.386370000E-02 -3.856200000E-01 1.170030000E+00 8.942778623E+01
1.388100000E-02 -3.503000000E-01 1.173960000E+00 8.931633168E+01
1.391620000E-02 -2.857300000E-01 1.176250000E+00 8.909041261E+01
1.393130000E-02 -2.608700000E-01 1.175460000E+00 8.899384838E+01
1.394010000E-02 -2.465000000E-01 1.175000000E+00 8.893766903E+01
1.397180000E-02 -2.005400000E-01 1.173320000E+00 8.873588228E+01
1.401230000E-02 -1.483100000E-01 1.168060000E+00 8.847940738E+01
1.404780000E-02 -1.081500000E-01 1.163420000E+00 8.825581230E+01
1.410600000E-02 -4.980000000E-02 1.155730000E+00 8.789167730E+01
1.417140000E-02 7.359000000E-03 1.146960000E+00 8.748606348E+01
1.424940000E-02 6.683600000E-02 1.136340000E+00 8.700717223E+01
1.429620000E-02 9.866000000E-02 1.129870000E+00 8.672234580E+01
1.441020000E-02 1.676690000E-01 1.115620000E+00 8.603627986E+01
1.455790000E-02 2.450540000E-01 1.096660000E+00 8.516338208E+01
1.471490000E-02 3.135160000E-01 1.075800000E+00 8.425473500E+01
1.486730000E-02 3.701130000E-01 1.057810000E+00 8.339106630E+01
1.507480000E-02 4.378950000E-01 1.032480000E+00 8.224321384E+01
1.532440000E-02 5.028600000E-01 1.004500000E+00 8.090365691E+01
1.548600000E-02 5.449090000E-01 9.863850000E-01 8.005940850E+01
1.592180000E-02 6.327010000E-01 9.408320000E-01 7.786808024E+01
1.609070000E-02 6.603490000E-01 9.242530000E-01 7.705071874E+01
1.622590000E-02 6.824860000E-01 9.109770000E-01 7.640870460E+01
1.659850000E-02 7.349770000E-01 8.764760000E-01 7.469349640E+01
1.685690000E-02 7.659280000E-01 8.536570000E-01 7.354851722E+01
1.732450000E-02 8.158050000E-01 8.138480000E-01 7.156339288E+01
1.778670000E-02 8.564130000E-01 7.773480000E-01 6.970376742E+01
1.854260000E-02 9.090760000E-01 7.229560000E-01 6.686225233E+01
1.915260000E-02 9.433303000E-01 6.829800000E-01 6.473272558E+01
2.043040000E-02 9.965325400E-01 6.095370000E-01 6.068407863E+01
2.146050000E-02 1.026674400E+00 5.580720000E-01 5.777125416E+01
2.423120000E-02 1.074766100E+00 4.485000000E-01 5.116543960E+01
2.729540000E-02 1.097699000E+00 3.604160000E-01 4.542157287E+01
3.062220000E-02 1.106455000E+00 2.908720000E-01 4.048696697E+01
3.430150000E-02 1.106795000E+00 2.350110000E-01 3.614419194E+01
3.822100000E-02 1.102445000E+00 1.910290000E-01 3.243766516E+01
4.268480000E-02 1.095580900E+00 1.543550000E-01 2.904546818E+01
4.770260000E-02 1.087116700E+00 1.242040000E-01 2.599019760E+01
5.296500000E-02 1.078689000E+00 1.010240000E-01 2.340791088E+01
5.904800000E-02 1.069913300E+00 8.134890000E-02 2.099647744E+01
6.637940000E-02 1.060957100E+00 6.425700000E-02 1.867748127E+01
7.421540000E-02 1.052941600E+00 5.124280000E-02 1.670542771E+01
8.166650000E-02 1.046691300E+00 4.209690000E-02 1.518125547E+01
9.129330000E-02 1.040051600E+00 3.345620000E-02 1.358040513E+01
1.013580000E-01 1.034521800E+00 2.688690000E-02 1.223189092E+01
1.126230000E-01 1.029577600E+00 2.155950000E-02 1.100840858E+01
1.256110000E-01 1.025117000E+00 1.711070000E-02 9.870154684E+00
1.376570000E-01 1.021815800E+00 1.408200000E-02 9.006443552E+00
1.533200000E-01 1.018438500E+00 1.118090000E-02 8.086355335E+00
1.675170000E-01 1.016011700E+00 9.234940000E-03 7.401039894E+00
1.864710000E-01 1.013460900E+00 7.324780000E-03 6.648755034E+00
2.043230000E-01 1.011592400E+00 5.996790000E-03 6.067843561E+00
2.261290000E-01 1.009791580E+00 4.801780000E-03 5.482711196E+00
2.467100000E-01 1.008461380E+00 3.965190000E-03 5.025333387E+00
2.730470000E-01 1.007121380E+00 3.164640000E-03 4.540610225E+00
3.012840000E-01 1.006011380E+00 2.543210000E-03 4.115054235E+00
3.319890000E-01 1.005083440E+00 2.047260000E-03 3.734461082E+00
3.676380000E-01 1.004250420E+00 1.627190000E-03 3.372339094E+00
4.084940000E-01 1.003527860E+00 1.283610000E-03 3.035050698E+00
4.542600000E-01 1.002919480E+00 1.008310000E-03 2.729273984E+00
5.026630000E-01 1.002432360E+00 8.006040000E-04 2.466463615E+00
5.559040000E-01 1.002025920E+00 6.364150000E-04 2.230241193E+00
6.158810000E-01 1.001679290E+00 5.026090000E-04 2.013051223E+00
6.703160000E-01 1.001435940E+00 4.135490000E-04 1.849575424E+00
7.426830000E-01 1.001186310E+00 3.264640000E-04 1.669352873E+00
8.196200000E-01 1.000985763E+00 2.595990000E-04 1.512652205E+00
8.927990000E-01 1.000829501E+00 2.126800000E-04 1.388666430E+00
9.657660000E-01 1.000705004E+00 1.771400000E-04 1.283747823E+00
1.068490000E+00 1.000571076E+00 1.398560000E-04 1.160329063E+00
1.156540000E+00 1.000483521E+00 1.160980000E-04 1.071990593E+00
1.260280000E+00 1.000402982E+00 9.484130000E-05 9.837496429E-01
1.363760000E+00 1.000340252E+00 7.878470000E-05 9.091042412E-01
1.486740000E+00 1.000282143E+00 6.429430000E-05 8.339050540E-01
1.632110000E+00 1.000229513E+00 5.149770000E-05 7.596301720E-01
1.803700000E+00 1.000183090E+00 4.061570000E-05 6.873648611E-01
1.988480000E+00 1.000145920E+00 3.221780000E-05 6.234913099E-01
2.192290000E+00 1.000115323E+00 2.553360000E-05 5.655273709E-01
2.382860000E+00 1.000093522E+00 2.090990000E-05 5.202991363E-01
2.592840000E+00 1.000074844E+00 1.708060000E-05 4.781629410E-01
2.802810000E+00 1.000060206E+00 1.417390000E-05 4.423417927E-01
3.041400000E+00 1.000047113E+00 1.165510000E-05 4.076412179E-01
3.292480000E+00 1.000036291E+00 9.632540000E-06 3.765550588E-01
3.514260000E+00 1.000028596E+00 8.229200000E-06 3.527911993E-01
3.782480000E+00 1.000021038E+00 6.890630000E-06 3.277743703E-01
4.023210000E+00 1.000015502E+00 5.937200000E-06 3.081618906E-01
4.265640000E+00 1.000010846E+00 5.156240000E-06 2.906480622E-01
4.442110000E+00 1.000007925E+00 4.675440000E-06 2.791015981E-01
4.641120000E+00 1.000005023E+00 4.205930000E-06 2.671337953E-01
4.726560000E+00 1.000003889E+00 4.025020000E-06 2.623049321E-01
4.838510000E+00 1.000002491E+00 3.803670000E-06 2.562359073E-01
4.902000000E+00 1.000001741E+00 3.685780000E-06 2.529171767E-01
5.015100000E+00 1.000000475E+00 3.489110000E-06 2.472134155E-01
5.134470000E+00 9.999992281E-01 3.296100000E-06 2.414660130E-01
5.217490000E+00 9.999984110E-01 3.170610000E-06 2.376238383E-01
5.412020000E+00 9.999966415E-01 2.902430000E-06 2.290826715E-01
5.657010000E+00 9.999946673E-01 2.606750000E-06 2.191617126E-01
6.001010000E+00 9.999922928E-01 2.258280000E-06 2.065985559E-01
6.482420000E+00 9.999895830E-01 1.872470000E-06 1.912557347E-01
7.004520000E+00 9.999872525E-01 1.551540000E-06 1.769999943E-01
7.618550000E+00 9.999851010E-01 1.264950000E-06 1.627343786E-01
8.229940000E+00 9.999834192E-01 1.048870000E-06 1.506450837E-01
9.077960000E+00 9.999816250E-01 8.260640000E-07 1.365725339E-01
9.935310000E+00 9.999802576E-01 6.624820000E-07 1.247872487E-01
1.080710000E+01 9.999791873E-01 5.395000000E-07 1.147208779E-01
