# Data retrieved from https://www-nds.iaea.org/epdl97/za1to100.htm 03/01/2021
# Element, Hg  (Z = 80) 
# Atomic weight, g mol-1 = 200.59 
# Nominal density, g cm-3 =  1.35460E+1 
# Relativistic correction estimate f_rel(5CL)*,  e atom-1 =  0 
# Nuclear Thomson correction f_NT*, e atom-1 =  0 
#    E [keV]      f1 [e atom-1]      f2 [e atom-1]    Wavelength [nm] 
1.000000000E-03 3.308200000E+00 0.000000000E+00 1.239800000E+03
1.125000000E-03 3.303000000E+00 0.000000000E+00 1.102044444E+03
1.265630000E-03 3.297200000E+00 0.000000000E+00 9.795911917E+02
1.423830000E-03 3.290600000E+00 0.000000000E+00 8.707500193E+02
1.601810000E-03 3.283200000E+00 0.000000000E+00 7.739994132E+02
1.802030000E-03 3.274800000E+00 0.000000000E+00 6.880018646E+02
2.027290000E-03 3.264200000E+00 0.000000000E+00 6.115553276E+02
2.280700000E-03 3.242400000E+00 0.000000000E+00 5.436050335E+02
2.565780000E-03 3.217800000E+00 0.000000000E+00 4.832058867E+02
2.886510000E-03 3.190100000E+00 0.000000000E+00 4.295152277E+02
3.189200000E-03 3.164000000E+00 0.000000000E+00 3.887495297E+02
3.454060000E-03 3.141200000E+00 0.000000000E+00 3.589399142E+02
3.685820000E-03 3.121200000E+00 0.000000000E+00 3.363701971E+02
3.888600000E-03 3.103700000E+00 0.000000000E+00 3.188293988E+02
4.066030000E-03 3.082900000E+00 0.000000000E+00 3.049165894E+02
4.221290000E-03 3.056800000E+00 0.000000000E+00 2.937016883E+02
4.357140000E-03 3.033900000E+00 0.000000000E+00 2.845444489E+02
4.476010000E-03 3.013900000E+00 0.000000000E+00 2.769877637E+02
4.580010000E-03 2.996400000E+00 0.000000000E+00 2.706980989E+02
4.671020000E-03 2.981000000E+00 0.000000000E+00 2.654238261E+02
4.750650000E-03 2.967600000E+00 0.000000000E+00 2.609748140E+02
4.890010000E-03 2.944100000E+00 0.000000000E+00 2.535373138E+02
4.994530000E-03 2.926500000E+00 0.000000000E+00 2.482315653E+02
5.072920000E-03 2.913300000E+00 0.000000000E+00 2.443957326E+02
5.131710000E-03 2.903400000E+00 0.000000000E+00 2.415958813E+02
5.175800000E-03 2.896000000E+00 0.000000000E+00 2.395378492E+02
5.208870000E-03 2.890400000E+00 0.000000000E+00 2.380170747E+02
5.233670000E-03 2.886200000E+00 0.000000000E+00 2.368892192E+02
5.252270000E-03 2.883100000E+00 0.000000000E+00 2.360503173E+02
5.280180000E-03 2.878400000E+00 0.000000000E+00 2.348026014E+02
5.294130000E-03 2.876000000E+00 0.000000000E+00 2.341838980E+02
5.301100000E-03 2.874900000E+00 0.000000000E+00 2.338759880E+02
5.308080000E-03 2.873700000E+00 0.000000000E+00 2.335684466E+02
5.321140000E-03 2.871500000E+00 0.000000000E+00 2.329951852E+02
5.334210000E-03 2.869300000E+00 0.000000000E+00 2.324242953E+02
5.347270000E-03 2.867100000E+00 0.000000000E+00 2.318566296E+02
5.360340000E-03 2.864900000E+00 0.000000000E+00 2.312912987E+02
5.373400000E-03 2.862700000E+00 0.000000000E+00 2.307291473E+02
5.386470000E-03 2.860500000E+00 0.000000000E+00 2.301692945E+02
5.393000000E-03 2.859400000E+00 0.000000000E+00 2.298905989E+02
5.399530000E-03 2.858300000E+00 0.000000000E+00 2.296125774E+02
5.406070000E-03 2.857200000E+00 0.000000000E+00 2.293348033E+02
5.412600000E-03 2.856100000E+00 0.000000000E+00 2.290581236E+02
5.422400000E-03 2.854400000E+00 0.000000000E+00 2.286441428E+02
5.425660000E-03 2.853900000E+00 0.000000000E+00 2.285067623E+02
5.437100000E-03 2.851900000E+00 0.000000000E+00 2.280259697E+02
5.439550000E-03 2.851500000E+00 0.000000000E+00 2.279232657E+02
5.441080000E-03 2.851300000E+00 0.000000000E+00 2.278591750E+02
5.443760000E-03 2.850800000E+00 0.000000000E+00 2.277469984E+02
5.445770000E-03 2.850500000E+00 0.000000000E+00 2.276629384E+02
5.448780000E-03 2.850000000E+00 0.000000000E+00 2.275371735E+02
5.450290000E-03 2.849700000E+00 0.000000000E+00 2.274741344E+02
5.453430000E-03 2.849200000E+00 0.000000000E+00 2.273431583E+02
5.456290000E-03 2.848700000E+00 0.000000000E+00 2.272239929E+02
5.468130000E-03 2.846700000E+00 0.000000000E+00 2.267319906E+02
5.477930000E-03 2.845100000E+00 0.000000000E+00 2.263263678E+02
5.484460000E-03 2.844000000E+00 0.000000000E+00 2.260568953E+02
5.490990000E-03 2.842900000E+00 0.000000000E+00 2.257880637E+02
5.497520000E-03 2.841800000E+00 0.000000000E+00 2.255198708E+02
5.504060000E-03 2.840700000E+00 0.000000000E+00 2.252519050E+02
5.517120000E-03 2.838500000E+00 0.000000000E+00 2.247186938E+02
5.530190000E-03 2.836300000E+00 0.000000000E+00 2.241875957E+02
5.543250000E-03 2.834100000E+00 0.000000000E+00 2.236594056E+02
5.562850000E-03 2.830800000E+00 0.000000000E+00 2.228713699E+02
5.569380000E-03 2.829700000E+00 0.000000000E+00 2.226100571E+02
5.572110000E-03 2.829200000E+00 0.000000000E+00 2.225009915E+02
5.577530000E-03 2.828300000E+00 0.000000000E+00 2.222847748E+02
5.588190000E-03 2.826500000E+00 0.000000000E+00 2.218607456E+02
5.598520000E-03 2.824700000E+00 0.000000000E+00 2.214513836E+02
5.608530000E-03 2.823100000E+00 0.000000000E+00 2.210561413E+02
5.618230000E-03 2.821400000E+00 0.000000000E+00 2.206744829E+02
5.627620000E-03 2.819800000E+00 0.000000000E+00 2.203062751E+02
5.636720000E-03 2.818300000E+00 0.000000000E+00 2.199506096E+02
5.645530000E-03 2.816800000E+00 0.000000000E+00 2.196073708E+02
5.782160000E-03 2.793800000E+00 0.000000000E+00 2.144181413E+02
5.816320000E-03 2.788100000E+00 0.000000000E+00 2.131588358E+02
5.841930000E-03 2.783700000E+00 0.000000000E+00 2.122243847E+02
5.861150000E-03 2.780500000E+00 0.000000000E+00 2.115284543E+02
5.875560000E-03 2.778100000E+00 0.000000000E+00 2.110096740E+02
5.897170000E-03 2.774400000E+00 0.000000000E+00 2.102364354E+02
5.913380000E-03 2.771700000E+00 0.000000000E+00 2.096601267E+02
5.918790000E-03 2.770800000E+00 0.000000000E+00 2.094684893E+02
5.926070000E-03 2.769600000E+00 0.000000000E+00 2.092111636E+02
5.947920000E-03 2.765900000E+00 0.000000000E+00 2.084426152E+02
5.962490000E-03 2.763400000E+00 0.000000000E+00 2.079332628E+02
5.977060000E-03 2.761000000E+00 0.000000000E+00 2.074263936E+02
5.991630000E-03 2.758500000E+00 0.000000000E+00 2.069219895E+02
6.000000000E-03 2.757100000E+00 0.000000000E+00 2.066333333E+02
6.006200000E-03 2.755500000E+00 0.000000000E+00 2.064200326E+02
6.013480000E-03 2.753600000E+00 0.000000000E+00 2.061701378E+02
6.020760000E-03 2.751700000E+00 0.000000000E+00 2.059208472E+02
6.028050000E-03 2.749800000E+00 0.000000000E+00 2.056718176E+02
6.035330000E-03 2.747900000E+00 0.000000000E+00 2.054237299E+02
6.046260000E-03 2.745000000E+00 0.000000000E+00 2.050523795E+02
6.051720000E-03 2.743600000E+00 0.000000000E+00 2.048673765E+02
6.058100000E-03 2.741900000E+00 0.000000000E+00 2.046516234E+02
6.061280000E-03 2.741100000E+00 0.000000000E+00 2.045442547E+02
6.062080000E-03 2.740900000E+00 0.000000000E+00 2.045172614E+02
6.062680000E-03 2.740700000E+00 0.000000000E+00 2.044970211E+02
6.063130000E-03 2.740600000E+00 0.000000000E+00 2.044818435E+02
6.063800000E-03 2.740500000E+00 0.000000000E+00 2.044592500E+02
6.064130000E-03 2.740400000E+00 0.000000000E+00 2.044481236E+02
6.064930000E-03 2.740200000E+00 0.000000000E+00 2.044211557E+02
6.079040000E-03 2.736500000E+00 0.000000000E+00 2.039466758E+02
6.082680000E-03 2.735500000E+00 0.000000000E+00 2.038246299E+02
6.093610000E-03 2.732700000E+00 0.000000000E+00 2.034590333E+02
6.100890000E-03 2.730800000E+00 0.000000000E+00 2.032162521E+02
6.108180000E-03 2.728900000E+00 0.000000000E+00 2.029737172E+02
6.115460000E-03 2.727000000E+00 0.000000000E+00 2.027320921E+02
6.122740000E-03 2.725100000E+00 0.000000000E+00 2.024910416E+02
6.130030000E-03 2.723200000E+00 0.000000000E+00 2.022502337E+02
6.137310000E-03 2.721300000E+00 0.000000000E+00 2.020103270E+02
6.151880000E-03 2.717500000E+00 0.000000000E+00 2.015318894E+02
6.166450000E-03 2.713700000E+00 0.000000000E+00 2.010557128E+02
6.181020000E-03 2.709900000E+00 0.000000000E+00 2.005817810E+02
6.195590000E-03 2.706100000E+00 0.000000000E+00 2.001100783E+02
6.210150000E-03 2.702300000E+00 0.000000000E+00 1.996409104E+02
6.220700000E-03 2.699500000E+00 0.000000000E+00 1.993023293E+02
6.241450000E-03 2.694100000E+00 0.000000000E+00 1.986397392E+02
6.261560000E-03 2.688800000E+00 0.000000000E+00 1.980017759E+02
6.281040000E-03 2.683800000E+00 0.000000000E+00 1.973876938E+02
6.318780000E-03 2.673900000E+00 0.000000000E+00 1.962087618E+02
6.354160000E-03 2.664700000E+00 0.000000000E+00 1.951162703E+02
6.387330000E-03 2.656000000E+00 0.000000000E+00 1.941030133E+02
6.449530000E-03 2.639800000E+00 0.000000000E+00 1.922310618E+02
6.503950000E-03 2.625600000E+00 0.000000000E+00 1.906226216E+02
6.599190000E-03 2.600700000E+00 0.000000000E+00 1.878715418E+02
6.670610000E-03 2.582100000E+00 0.000000000E+00 1.858600638E+02
6.777760000E-03 2.554100000E+00 0.000000000E+00 1.829217913E+02
6.884900000E-03 2.526200000E+00 0.000000000E+00 1.800752371E+02
6.901840000E-03 2.521800000E+00 0.000000000E+00 1.796332572E+02
6.918790000E-03 2.517300000E+00 0.000000000E+00 1.791931826E+02
6.935740000E-03 2.512900000E+00 0.000000000E+00 1.787552590E+02
6.952680000E-03 2.508500000E+00 0.000000000E+00 1.783197271E+02
6.969630000E-03 2.504100000E+00 0.000000000E+00 1.778860571E+02
6.986570000E-03 2.499600000E+00 0.000000000E+00 1.774547453E+02
7.003520000E-03 2.495200000E+00 0.000000000E+00 1.770252673E+02
7.020470000E-03 2.490800000E+00 0.000000000E+00 1.765978631E+02
7.037410000E-03 2.486400000E+00 0.000000000E+00 1.761727681E+02
7.054360000E-03 2.482000000E+00 0.000000000E+00 1.757494656E+02
7.071310000E-03 2.477500000E+00 0.000000000E+00 1.753281924E+02
7.088250000E-03 2.473100000E+00 0.000000000E+00 1.749091807E+02
7.105200000E-03 2.468700000E+00 0.000000000E+00 1.744919214E+02
7.139090000E-03 2.459800000E+00 0.000000000E+00 1.736635902E+02
7.156040000E-03 2.455400000E+00 0.000000000E+00 1.732522457E+02
7.172980000E-03 2.451000000E+00 0.000000000E+00 1.728430861E+02
7.189930000E-03 2.446600000E+00 0.000000000E+00 1.724356148E+02
7.206880000E-03 2.442200000E+00 0.000000000E+00 1.720300602E+02
7.223820000E-03 2.437700000E+00 0.000000000E+00 1.716266463E+02
7.470970000E-03 2.373200000E+00 0.000000000E+00 1.659489999E+02
7.594540000E-03 2.340300000E+00 0.000000000E+00 1.632488604E+02
7.656320000E-03 2.320100000E+00 0.000000000E+00 1.619315807E+02
7.687220000E-03 2.309900000E+00 0.000000000E+00 1.612806710E+02
7.702660000E-03 2.304900000E+00 0.000000000E+00 1.609573836E+02
7.718110000E-03 2.299800000E+00 0.000000000E+00 1.606351814E+02
7.737110000E-03 2.293600000E+00 0.000000000E+00 1.602407100E+02
7.756100000E-03 2.287400000E+00 0.000000000E+00 1.598483774E+02
7.775100000E-03 2.281200000E+00 0.000000000E+00 1.594577562E+02
7.794100000E-03 2.275000000E+00 0.000000000E+00 1.590690394E+02
7.815390000E-03 2.268000000E+00 0.000000000E+00 1.586357175E+02
7.818390000E-03 2.267000000E+00 0.000000000E+00 1.585748473E+02
7.832090000E-03 2.262500000E+00 0.000000000E+00 1.582974659E+02
7.845190000E-03 2.258200000E+00 0.000000000E+00 1.580331388E+02
7.855020000E-03 2.255000000E+00 0.000000000E+00 1.578353715E+02
7.858300000E-03 2.253900000E+00 0.000000000E+00 1.577694921E+02
7.861240000E-03 2.253000000E+00 0.000000000E+00 1.577104884E+02
7.865670000E-03 2.251500000E+00 0.000000000E+00 1.576216648E+02
7.870090000E-03 2.250100000E+00 0.000000000E+00 1.575331413E+02
7.890920000E-03 2.243300000E+00 0.000000000E+00 1.571172943E+02
7.896980000E-03 2.241300000E+00 0.000000000E+00 1.569967253E+02
7.903660000E-03 2.239100000E+00 0.000000000E+00 1.568640351E+02
7.910340000E-03 2.236900000E+00 0.000000000E+00 1.567315691E+02
7.916320000E-03 2.234900000E+00 0.000000000E+00 1.566131738E+02
7.935670000E-03 2.228600000E+00 0.000000000E+00 1.562312949E+02
7.945340000E-03 2.225400000E+00 0.000000000E+00 1.560411512E+02
7.955010000E-03 2.222300000E+00 0.000000000E+00 1.558514697E+02
7.962290000E-03 2.219900000E+00 0.000000000E+00 1.557089732E+02
7.968660000E-03 2.217800000E+00 0.000000000E+00 1.555845023E+02
7.974230000E-03 2.216000000E+00 0.000000000E+00 1.554758265E+02
7.983980000E-03 2.212800000E+00 0.000000000E+00 1.552859601E+02
7.991300000E-03 2.210400000E+00 0.000000000E+00 1.551437188E+02
7.996790000E-03 2.208600000E+00 0.000000000E+00 1.550372087E+02
8.000900000E-03 2.207200000E+00 0.000000000E+00 1.549575673E+02
8.006300000E-03 2.205200000E+00 0.000000000E+00 1.548530532E+02
8.007550000E-03 2.204800000E+00 0.000000000E+00 1.548288802E+02
8.012310000E-03 2.203000000E+00 0.000000000E+00 1.547368986E+02
8.013240000E-03 2.202700000E+00 0.000000000E+00 1.547189402E+02
8.022960000E-03 2.199100000E+00 0.000000000E+00 1.545314946E+02
8.027820000E-03 2.197300000E+00 0.000000000E+00 1.544379421E+02
8.030250000E-03 2.196400000E+00 0.000000000E+00 1.543912082E+02
8.032680000E-03 2.195500000E+00 0.000000000E+00 1.543445027E+02
8.052120000E-03 2.188300000E+00 0.000000000E+00 1.539718732E+02
8.071550000E-03 2.181100000E+00 0.000000000E+00 1.536012290E+02
8.090990000E-03 2.173900000E+00 0.000000000E+00 1.532321755E+02
8.105570000E-03 2.168600000E+00 0.000000000E+00 1.529565472E+02
8.127430000E-03 2.160500000E+00 0.000000000E+00 1.525451465E+02
8.138370000E-03 2.156400000E+00 0.000000000E+00 1.523400878E+02
8.149300000E-03 2.152400000E+00 0.000000000E+00 1.521357663E+02
8.168740000E-03 2.145200000E+00 0.000000000E+00 1.517737130E+02
8.187120000E-03 2.138400000E+00 0.000000000E+00 1.514329825E+02
8.206460000E-03 2.131300000E+00 0.000000000E+00 1.510761035E+02
8.227050000E-03 2.123700000E+00 0.000000000E+00 1.506980023E+02
8.245140000E-03 2.117000000E+00 0.000000000E+00 1.503673679E+02
8.246480000E-03 2.116500000E+00 0.000000000E+00 1.503429342E+02
8.265920000E-03 2.109300000E+00 0.000000000E+00 1.499893539E+02
8.279360000E-03 2.104400000E+00 0.000000000E+00 1.497458741E+02
8.285360000E-03 2.102100000E+00 0.000000000E+00 1.496374328E+02
8.328440000E-03 2.086200000E+00 0.000000000E+00 1.488634126E+02
8.457680000E-03 2.030000000E+00 0.000000000E+00 1.465886626E+02
8.478500000E-03 2.020200000E+00 0.000000000E+00 1.462286961E+02
8.499320000E-03 2.010300000E+00 0.000000000E+00 1.458704932E+02
8.513110000E-03 2.003800000E+00 0.000000000E+00 1.456342042E+02
8.520140000E-03 2.000500000E+00 0.000000000E+00 1.455140408E+02
8.540950000E-03 1.990600000E+00 0.000000000E+00 1.451594963E+02
8.555020000E-03 1.984000000E+00 0.000000000E+00 1.449207600E+02
8.575970000E-03 1.974100000E+00 0.000000000E+00 1.445667371E+02
8.598630000E-03 1.963300000E+00 0.000000000E+00 1.441857598E+02
8.609110000E-03 1.958400000E+00 0.000000000E+00 1.440102403E+02
8.619590000E-03 1.953400000E+00 0.000000000E+00 1.438351476E+02
8.631160000E-03 1.947900000E+00 0.000000000E+00 1.436423378E+02
8.639830000E-03 1.943800000E+00 0.000000000E+00 1.434981938E+02
8.652850000E-03 1.937700000E+00 0.000000000E+00 1.432822712E+02
8.659350000E-03 1.934600000E+00 0.000000000E+00 1.431747187E+02
8.665860000E-03 1.931500000E+00 0.000000000E+00 1.430671624E+02
8.676270000E-03 1.926600000E+00 0.000000000E+00 1.428955069E+02
8.686680000E-03 1.921700000E+00 0.000000000E+00 1.427242629E+02
8.703420000E-03 1.913800000E+00 0.000000000E+00 1.424497496E+02
8.724380000E-03 1.903800000E+00 0.000000000E+00 1.421075194E+02
8.745340000E-03 1.893900000E+00 0.000000000E+00 1.417669296E+02
8.772000000E-03 1.881300000E+00 0.000000000E+00 1.413360693E+02
8.791770000E-03 1.869400000E+00 0.000000000E+00 1.410182477E+02
8.813590000E-03 1.856300000E+00 0.000000000E+00 1.406691257E+02
8.829170000E-03 1.846900000E+00 0.000000000E+00 1.404209003E+02
8.850130000E-03 1.834300000E+00 0.000000000E+00 1.400883377E+02
8.869330000E-03 1.822700000E+00 0.000000000E+00 1.397850796E+02
8.878680000E-03 1.817100000E+00 0.000000000E+00 1.396378741E+02
8.890280000E-03 1.810100000E+00 0.000000000E+00 1.394556752E+02
8.900370000E-03 1.804000000E+00 0.000000000E+00 1.392975798E+02
8.925440000E-03 1.788900000E+00 0.000000000E+00 1.389063172E+02
8.932190000E-03 1.784800000E+00 0.000000000E+00 1.388013466E+02
8.945930000E-03 1.776600000E+00 0.000000000E+00 1.385881624E+02
8.966540000E-03 1.764200000E+00 0.000000000E+00 1.382696112E+02
8.987140000E-03 1.748400000E+00 0.000000000E+00 1.379526746E+02
9.008840000E-03 1.730100000E+00 0.000000000E+00 1.376203818E+02
9.030530000E-03 1.710400000E+00 0.000000000E+00 1.372898379E+02
9.052220000E-03 1.690700000E+00 0.000000000E+00 1.369608781E+02
9.072130000E-03 1.672700000E+00 0.000000000E+00 1.366602992E+02
9.102000000E-03 1.645600000E+00 0.000000000E+00 1.362118216E+02
9.131860000E-03 1.618600000E+00 0.000000000E+00 1.357664266E+02
9.168370000E-03 1.585400000E+00 4.720200000E-07 1.352257817E+02
9.193600000E-03 1.557300000E+00 2.516390000E-06 1.348546815E+02
9.244010000E-03 1.495200000E+00 4.915150000E-05 1.341192837E+02
9.320470000E-03 1.376000000E+00 1.900270000E-03 1.330190430E+02
9.367080000E-03 1.277000000E+00 1.096540000E-02 1.323571487E+02
9.408800000E-03 1.163600000E+00 3.949540000E-02 1.317702576E+02
9.435790000E-03 1.079300000E+00 7.892790000E-02 1.313933439E+02
9.446090000E-03 1.046200000E+00 1.000260000E-01 1.312500728E+02
9.478920000E-03 9.448000000E-01 1.934440000E-01 1.307954915E+02
9.496700000E-03 8.983000000E-01 2.608730000E-01 1.305506123E+02
9.504280000E-03 8.814000000E-01 2.929560000E-01 1.304464936E+02
9.518480000E-03 8.557000000E-01 3.571710000E-01 1.302518890E+02
9.529310000E-03 8.422000000E-01 4.092180000E-01 1.301038585E+02
9.537760000E-03 8.375000000E-01 4.511560000E-01 1.299885927E+02
9.547210000E-03 8.323000000E-01 4.981270000E-01 1.298599277E+02
9.571230000E-03 8.449000000E-01 6.166170000E-01 1.295340306E+02
9.602690000E-03 8.982000000E-01 7.559190000E-01 1.291096557E+02
9.636520000E-03 9.900000000E-01 8.680480000E-01 1.286564029E+02
9.684600000E-03 1.135100000E+00 9.544450000E-01 1.280176775E+02
9.752050000E-03 1.297700000E+00 9.804510000E-01 1.271322440E+02
9.808660000E-03 1.389000000E+00 9.709750000E-01 1.263985091E+02
9.843920000E-03 1.423500000E+00 9.611120000E-01 1.259457614E+02
9.855670000E-03 1.434600000E+00 9.578240000E-01 1.257956080E+02
9.902680000E-03 1.479000000E+00 9.446740000E-01 1.251984311E+02
9.949690000E-03 1.512700000E+00 9.312940000E-01 1.246068973E+02
9.973200000E-03 1.525000000E+00 9.245050000E-01 1.243131593E+02
9.996710000E-03 1.537300000E+00 9.177160000E-01 1.240208028E+02
1.002020000E-02 1.549600000E+00 9.109280000E-01 1.237300653E+02
1.005540000E-02 1.564800000E+00 9.010250000E-01 1.232969350E+02
1.008170000E-02 1.571400000E+00 8.939520000E-01 1.229752919E+02
1.010150000E-02 1.576400000E+00 8.886480000E-01 1.227342474E+02
1.013110000E-02 1.583900000E+00 8.806910000E-01 1.223756552E+02
1.014600000E-02 1.587600000E+00 8.767120000E-01 1.221959393E+02
1.015340000E-02 1.589500000E+00 8.747230000E-01 1.221068805E+02
1.016080000E-02 1.591300000E+00 8.727340000E-01 1.220179513E+02
1.017330000E-02 1.594500000E+00 8.693790000E-01 1.218680271E+02
1.021080000E-02 1.604000000E+00 8.593130000E-01 1.214204568E+02
1.023580000E-02 1.610300000E+00 8.526030000E-01 1.211238985E+02
1.026080000E-02 1.613700000E+00 8.461900000E-01 1.208287853E+02
1.028590000E-02 1.615400000E+00 8.399550000E-01 1.205339348E+02
1.029840000E-02 1.616300000E+00 8.368370000E-01 1.203876330E+02
1.031090000E-02 1.617200000E+00 8.337200000E-01 1.202416860E+02
1.032340000E-02 1.618000000E+00 8.306020000E-01 1.200960924E+02
1.033590000E-02 1.618900000E+00 8.274850000E-01 1.199508509E+02
1.034840000E-02 1.619800000E+00 8.243670000E-01 1.198059603E+02
1.035460000E-02 1.620200000E+00 8.228090000E-01 1.197342244E+02
1.037340000E-02 1.621500000E+00 8.181330000E-01 1.195172268E+02
1.037960000E-02 1.621900000E+00 8.165740000E-01 1.194458361E+02
1.038280000E-02 1.622100000E+00 8.157950000E-01 1.194090226E+02
1.038900000E-02 1.622600000E+00 8.142360000E-01 1.193377611E+02
1.040130000E-02 1.623400000E+00 8.111670000E-01 1.191966389E+02
1.040370000E-02 1.623600000E+00 8.105700000E-01 1.191691417E+02
