# Data retrieved from https://www-nds.iaea.org/epdl97/za1to100.htm 03/01/2021
# Element, Ir  (Z = 77) 
# Atomic weight, g mol-1 = 192.2 
# Nominal density, g cm-3 =  2.24200E+1 
# Relativistic correction estimate f_rel(5CL)*,  e atom-1 =  0 
# Nuclear Thomson correction f_NT*, e atom-1 =  0 
#    E [keV]      f1 [e atom-1]      f2 [e atom-1]    Wavelength [nm] 
1.000000000E-03 2.132400000E+00 0.000000000E+00 1.239800000E+03
1.188080000E-03 2.114500000E+00 0.000000000E+00 1.043532422E+03
1.376170000E-03 2.096700000E+00 0.000000000E+00 9.009061380E+02
1.379550000E-03 2.096400000E+00 0.000000000E+00 8.986988511E+02
1.382940000E-03 2.096100000E+00 0.000000000E+00 8.964958711E+02
1.386330000E-03 2.095800000E+00 0.000000000E+00 8.943036651E+02
1.389720000E-03 2.095500000E+00 0.000000000E+00 8.921221541E+02
1.393100000E-03 2.095100000E+00 0.000000000E+00 8.899576484E+02
1.396490000E-03 2.094800000E+00 0.000000000E+00 8.877972631E+02
1.399880000E-03 2.094500000E+00 0.000000000E+00 8.856473412E+02
1.403270000E-03 2.094200000E+00 0.000000000E+00 8.835078068E+02
1.406650000E-03 2.093900000E+00 0.000000000E+00 8.813848505E+02
1.410040000E-03 2.093500000E+00 0.000000000E+00 8.792658364E+02
1.413430000E-03 2.093200000E+00 0.000000000E+00 8.771569869E+02
1.416810000E-03 2.092900000E+00 0.000000000E+00 8.750644052E+02
1.420200000E-03 2.092600000E+00 0.000000000E+00 8.729756372E+02
1.426980000E-03 2.091900000E+00 0.000000000E+00 8.688278743E+02
1.430360000E-03 2.091600000E+00 0.000000000E+00 8.667747980E+02
1.433750000E-03 2.091300000E+00 0.000000000E+00 8.647253705E+02
1.437140000E-03 2.091000000E+00 0.000000000E+00 8.626856117E+02
1.440530000E-03 2.090600000E+00 0.000000000E+00 8.606554532E+02
1.443910000E-03 2.090300000E+00 0.000000000E+00 8.586407740E+02
1.624400000E-03 2.073200000E+00 0.000000000E+00 7.632356562E+02
1.827450000E-03 2.054000000E+00 0.000000000E+00 6.784316944E+02
2.000000000E-03 2.037700000E+00 0.000000000E+00 6.199000000E+02
2.055880000E-03 2.025800000E+00 0.000000000E+00 6.030507617E+02
2.312870000E-03 1.971500000E+00 0.000000000E+00 5.360439627E+02
2.601980000E-03 1.910300000E+00 0.000000000E+00 4.764832935E+02
2.857460000E-03 1.856200000E+00 0.000000000E+00 4.338818391E+02
3.081000000E-03 1.808900000E+00 0.000000000E+00 4.024018176E+02
3.276600000E-03 1.767500000E+00 0.000000000E+00 3.783800281E+02
3.447760000E-03 1.731200000E+00 0.000000000E+00 3.595957955E+02
3.597510000E-03 1.699500000E+00 0.000000000E+00 3.446272561E+02
3.728550000E-03 1.671800000E+00 0.000000000E+00 3.325153210E+02
3.843210000E-03 1.647500000E+00 0.000000000E+00 3.225949141E+02
3.943540000E-03 1.626300000E+00 0.000000000E+00 3.143875807E+02
4.031320000E-03 1.601000000E+00 0.000000000E+00 3.075419466E+02
4.108130000E-03 1.568200000E+00 0.000000000E+00 3.017918128E+02
4.175340000E-03 1.539500000E+00 0.000000000E+00 2.969339024E+02
4.292960000E-03 1.489300000E+00 0.000000000E+00 2.887984048E+02
4.381180000E-03 1.451600000E+00 0.000000000E+00 2.829831233E+02
4.447340000E-03 1.423400000E+00 0.000000000E+00 2.787733791E+02
4.496960000E-03 1.402200000E+00 0.000000000E+00 2.756973600E+02
4.534170000E-03 1.386300000E+00 0.000000000E+00 2.734348293E+02
4.562080000E-03 1.374400000E+00 0.000000000E+00 2.717620033E+02
4.583020000E-03 1.365400000E+00 0.000000000E+00 2.705203119E+02
4.598720000E-03 1.358700000E+00 0.000000000E+00 2.695967574E+02
4.622270000E-03 1.348700000E+00 0.000000000E+00 2.682231890E+02
4.634040000E-03 1.343600000E+00 0.000000000E+00 2.675419289E+02
4.639930000E-03 1.341100000E+00 0.000000000E+00 2.672023069E+02
4.645820000E-03 1.338600000E+00 0.000000000E+00 2.668635462E+02
4.657250000E-03 1.333700000E+00 0.000000000E+00 2.662085995E+02
4.668690000E-03 1.328800000E+00 0.000000000E+00 2.655562910E+02
4.680120000E-03 1.324000000E+00 0.000000000E+00 2.649077374E+02
4.691560000E-03 1.319100000E+00 0.000000000E+00 2.642617807E+02
4.702990000E-03 1.314200000E+00 0.000000000E+00 2.636195272E+02
4.714430000E-03 1.309300000E+00 0.000000000E+00 2.629798300E+02
4.720150000E-03 1.306900000E+00 0.000000000E+00 2.626611442E+02
4.725860000E-03 1.304400000E+00 0.000000000E+00 2.623437850E+02
4.731580000E-03 1.302000000E+00 0.000000000E+00 2.620266380E+02
4.737300000E-03 1.299500000E+00 0.000000000E+00 2.617102569E+02
4.745880000E-03 1.295900000E+00 0.000000000E+00 2.612371151E+02
4.748730000E-03 1.294700000E+00 0.000000000E+00 2.610803310E+02
4.758740000E-03 1.290400000E+00 0.000000000E+00 2.605311490E+02
4.760880000E-03 1.289500000E+00 0.000000000E+00 2.604140411E+02
4.762220000E-03 1.288900000E+00 0.000000000E+00 2.603407654E+02
4.764570000E-03 1.287900000E+00 0.000000000E+00 2.602123591E+02
4.766330000E-03 1.287100000E+00 0.000000000E+00 2.601162739E+02
4.768970000E-03 1.286000000E+00 0.000000000E+00 2.599722791E+02
4.770290000E-03 1.285500000E+00 0.000000000E+00 2.599003415E+02
4.770950000E-03 1.285200000E+00 0.000000000E+00 2.598643876E+02
4.771610000E-03 1.284900000E+00 0.000000000E+00 2.598284436E+02
4.773030000E-03 1.284300000E+00 0.000000000E+00 2.597511434E+02
4.775540000E-03 1.283200000E+00 0.000000000E+00 2.596146195E+02
4.785900000E-03 1.278800000E+00 0.000000000E+00 2.590526338E+02
4.794480000E-03 1.275100000E+00 0.000000000E+00 2.585890441E+02
4.800190000E-03 1.272700000E+00 0.000000000E+00 2.582814430E+02
4.805910000E-03 1.270200000E+00 0.000000000E+00 2.579740361E+02
4.811630000E-03 1.267800000E+00 0.000000000E+00 2.576673601E+02
4.817350000E-03 1.265400000E+00 0.000000000E+00 2.573614124E+02
4.828780000E-03 1.260500000E+00 0.000000000E+00 2.567522231E+02
4.840220000E-03 1.255600000E+00 0.000000000E+00 2.561453818E+02
4.851650000E-03 1.250700000E+00 0.000000000E+00 2.555419290E+02
4.868800000E-03 1.243400000E+00 0.000000000E+00 2.546418009E+02
4.874520000E-03 1.241000000E+00 0.000000000E+00 2.543429917E+02
4.876760000E-03 1.240000000E+00 0.000000000E+00 2.542261666E+02
4.881200000E-03 1.238100000E+00 0.000000000E+00 2.539949193E+02
4.889940000E-03 1.234400000E+00 0.000000000E+00 2.535409432E+02
4.898410000E-03 1.230800000E+00 0.000000000E+00 2.531025374E+02
4.906610000E-03 1.227300000E+00 0.000000000E+00 2.526795486E+02
4.914560000E-03 1.223900000E+00 0.000000000E+00 2.522708035E+02
4.922260000E-03 1.220600000E+00 0.000000000E+00 2.518761707E+02
4.929720000E-03 1.217400000E+00 0.000000000E+00 2.514950139E+02
4.936940000E-03 1.214300000E+00 0.000000000E+00 2.511272165E+02
5.048930000E-03 1.166500000E+00 0.000000000E+00 2.455569794E+02
5.076930000E-03 1.154500000E+00 0.000000000E+00 2.442026973E+02
5.097930000E-03 1.145600000E+00 0.000000000E+00 2.431967485E+02
5.113670000E-03 1.138800000E+00 0.000000000E+00 2.424481830E+02
5.125490000E-03 1.133800000E+00 0.000000000E+00 2.418890682E+02
5.143200000E-03 1.126200000E+00 0.000000000E+00 2.410561518E+02
5.152060000E-03 1.122400000E+00 0.000000000E+00 2.406416074E+02
5.156490000E-03 1.120600000E+00 0.000000000E+00 2.404348695E+02
5.160920000E-03 1.118700000E+00 0.000000000E+00 2.402284864E+02
5.167270000E-03 1.116000000E+00 0.000000000E+00 2.399332723E+02
5.186330000E-03 1.107800000E+00 0.000000000E+00 2.390515066E+02
5.199030000E-03 1.102400000E+00 0.000000000E+00 2.384675603E+02
5.211730000E-03 1.097000000E+00 0.000000000E+00 2.378864600E+02
5.224440000E-03 1.091500000E+00 0.000000000E+00 2.373077306E+02
5.230790000E-03 1.088800000E+00 0.000000000E+00 2.370196471E+02
5.237140000E-03 1.086100000E+00 0.000000000E+00 2.367322623E+02
5.243490000E-03 1.083400000E+00 0.000000000E+00 2.364455735E+02
5.249840000E-03 1.080700000E+00 0.000000000E+00 2.361595782E+02
5.256190000E-03 1.078000000E+00 0.000000000E+00 2.358742740E+02
5.262540000E-03 1.074600000E+00 0.000000000E+00 2.355896582E+02
5.272070000E-03 1.068800000E+00 0.000000000E+00 2.351637971E+02
5.275250000E-03 1.066800000E+00 0.000000000E+00 2.350220369E+02
5.276830000E-03 1.065800000E+00 0.000000000E+00 2.349516661E+02
5.282390000E-03 1.062400000E+00 0.000000000E+00 2.347043668E+02
5.285170000E-03 1.060700000E+00 0.000000000E+00 2.345809123E+02
5.285870000E-03 1.060200000E+00 0.000000000E+00 2.345498470E+02
5.286390000E-03 1.059900000E+00 0.000000000E+00 2.345267754E+02
5.286780000E-03 1.059700000E+00 0.000000000E+00 2.345094746E+02
5.287360000E-03 1.059300000E+00 0.000000000E+00 2.344837499E+02
5.287660000E-03 1.059100000E+00 0.000000000E+00 2.344704463E+02
5.287950000E-03 1.059000000E+00 0.000000000E+00 2.344575875E+02
5.288350000E-03 1.058700000E+00 0.000000000E+00 2.344398536E+02
5.300650000E-03 1.051100000E+00 0.000000000E+00 2.338958430E+02
5.303830000E-03 1.049100000E+00 0.000000000E+00 2.337556068E+02
5.313360000E-03 1.043300000E+00 0.000000000E+00 2.333363446E+02
5.319710000E-03 1.039300000E+00 0.000000000E+00 2.330578171E+02
5.326060000E-03 1.035400000E+00 0.000000000E+00 2.327799537E+02
5.332410000E-03 1.031500000E+00 0.000000000E+00 2.325027520E+02
5.338760000E-03 1.027600000E+00 0.000000000E+00 2.322262098E+02
5.345110000E-03 1.023700000E+00 0.000000000E+00 2.319503247E+02
5.351460000E-03 1.019700000E+00 0.000000000E+00 2.316750943E+02
5.364170000E-03 1.011900000E+00 0.000000000E+00 2.311261574E+02
5.376870000E-03 1.004100000E+00 0.000000000E+00 2.305802446E+02
5.389570000E-03 9.962000000E-01 0.000000000E+00 2.300369046E+02
5.402280000E-03 9.884000000E-01 0.000000000E+00 2.294956944E+02
5.414980000E-03 9.805000000E-01 0.000000000E+00 2.289574477E+02
5.420790000E-03 9.769000000E-01 0.000000000E+00 2.287120512E+02
5.432320000E-03 9.698000000E-01 0.000000000E+00 2.282266140E+02
5.455010000E-03 9.558000000E-01 0.000000000E+00 2.272773102E+02
5.476990000E-03 9.422000000E-01 0.000000000E+00 2.263652115E+02
5.498290000E-03 9.291000000E-01 0.000000000E+00 2.254882882E+02
5.539560000E-03 9.036000000E-01 0.000000000E+00 2.238083891E+02
5.578240000E-03 8.797000000E-01 0.000000000E+00 2.222564823E+02
5.614510000E-03 8.573000000E-01 0.000000000E+00 2.208206949E+02
5.682510000E-03 8.153000000E-01 0.000000000E+00 2.181782346E+02
5.742010000E-03 7.786000000E-01 0.000000000E+00 2.159174226E+02
5.846140000E-03 7.132000000E-01 0.000000000E+00 2.120715549E+02
5.924230000E-03 6.490000000E-01 0.000000000E+00 2.092761422E+02
6.041370000E-03 5.380000000E-01 0.000000000E+00 2.052183528E+02
6.158520000E-03 4.269000000E-01 0.000000000E+00 2.013146016E+02
6.173670000E-03 4.125000000E-01 0.000000000E+00 2.008205816E+02
6.188830000E-03 3.981000000E-01 0.000000000E+00 2.003286566E+02
6.203990000E-03 3.836000000E-01 0.000000000E+00 1.998391358E+02
6.219150000E-03 3.626000000E-01 0.000000000E+00 1.993520015E+02
6.234310000E-03 3.417000000E-01 0.000000000E+00 1.988672363E+02
6.249470000E-03 3.208000000E-01 0.000000000E+00 1.983848230E+02
6.264620000E-03 2.998000000E-01 0.000000000E+00 1.979050605E+02
6.279780000E-03 2.789000000E-01 0.000000000E+00 1.974272984E+02
6.294940000E-03 2.579000000E-01 0.000000000E+00 1.969518375E+02
6.310100000E-03 2.370000000E-01 0.000000000E+00 1.964786612E+02
6.325260000E-03 2.161000000E-01 0.000000000E+00 1.960077530E+02
6.340420000E-03 1.951000000E-01 0.000000000E+00 1.955390968E+02
6.355580000E-03 1.742000000E-01 0.000000000E+00 1.950726763E+02
6.385890000E-03 1.323000000E-01 0.000000000E+00 1.941467830E+02
6.401050000E-03 1.114000000E-01 0.000000000E+00 1.936869732E+02
6.416210000E-03 9.040000000E-02 0.000000000E+00 1.932293363E+02
6.431370000E-03 6.950000000E-02 0.000000000E+00 1.927738569E+02
6.446530000E-03 4.850000000E-02 0.000000000E+00 1.923205197E+02
6.461680000E-03 2.760000000E-02 0.000000000E+00 1.918696067E+02
6.518400000E-03 -5.070000000E-02 0.000000000E+00 1.902000491E+02
6.518670000E-03 -5.120000000E-02 4.579460000E-07 1.901921711E+02
6.521040000E-03 -5.570000000E-02 5.764520000E-07 1.901230479E+02
6.523400000E-03 -6.020000000E-02 7.221670000E-07 1.900542662E+02
6.525730000E-03 -6.460000000E-02 9.006270000E-07 1.899864077E+02
6.528810000E-03 -7.060000000E-02 1.200910000E-06 1.898967806E+02
6.531850000E-03 -7.650000000E-02 1.589660000E-06 1.898084004E+02
6.534370000E-03 -8.140000000E-02 1.997630000E-06 1.897352002E+02
6.537350000E-03 -8.730000000E-02 2.611550000E-06 1.896487109E+02
6.540290000E-03 -9.320000000E-02 3.391970000E-06 1.895634597E+02
6.543200000E-03 -9.910000000E-02 4.377970000E-06 1.894791539E+02
6.546080000E-03 -1.049000000E-01 5.616210000E-06 1.893957911E+02
6.548930000E-03 -1.108000000E-01 7.162140000E-06 1.893133687E+02
6.551740000E-03 -1.166000000E-01 9.081240000E-06 1.892321734E+02
6.554520000E-03 -1.225000000E-01 1.145030000E-05 1.891519135E+02
6.557260000E-03 -1.283000000E-01 1.435900000E-05 1.890728750E+02
6.559980000E-03 -1.341000000E-01 1.791150000E-05 1.889944786E+02
6.563550000E-03 -1.419000000E-01 2.385960000E-05 1.888916821E+02
6.567060000E-03 -1.496000000E-01 3.150240000E-05 1.887907222E+02
6.570520000E-03 -1.574000000E-01 4.123850000E-05 1.886913060E+02
6.573500000E-03 -1.641000000E-01 5.184260000E-05 1.886057656E+02
6.577280000E-03 -1.728000000E-01 6.895250000E-05 1.884973728E+02
6.580990000E-03 -1.815000000E-01 9.081480000E-05 1.883911083E+02
6.584640000E-03 -1.901000000E-01 1.184850000E-04 1.882866793E+02
6.588220000E-03 -1.988000000E-01 1.531880000E-04 1.881843654E+02
6.591740000E-03 -2.075000000E-01 1.963270000E-04 1.880838747E+02
6.595190000E-03 -2.161000000E-01 2.495010000E-04 1.879854864E+02
6.598590000E-03 -2.248000000E-01 3.145090000E-04 1.878886247E+02
6.601930000E-03 -2.335000000E-01 3.933610000E-04 1.877935695E+02
6.605930000E-03 -2.441000000E-01 5.117990000E-04 1.876798573E+02
6.610200000E-03 -2.557000000E-01 6.738790000E-04 1.875586215E+02
6.614380000E-03 -2.673000000E-01 8.764930000E-04 1.874400926E+02
6.618450000E-03 -2.789000000E-01 1.126820000E-03 1.873248268E+02
6.622440000E-03 -2.906000000E-01 1.432650000E-03 1.872119642E+02
6.626320000E-03 -3.023000000E-01 1.802330000E-03 1.871023434E+02
6.631370000E-03 -3.179000000E-01 2.409890000E-03 1.869598590E+02
6.636260000E-03 -3.336000000E-01 3.168640000E-03 1.868220956E+02
6.641580000E-03 -3.513000000E-01 4.231200000E-03 1.866724484E+02
6.646720000E-03 -3.691000000E-01 5.546390000E-03 1.865280921E+02
6.651680000E-03 -3.869000000E-01 7.146130000E-03 1.863890025E+02
6.656460000E-03 -4.048000000E-01 9.060770000E-03 1.862551566E+02
6.661090000E-03 -4.226000000E-01 1.131910000E-02 1.861256941E+02
6.667010000E-03 -4.464000000E-01 1.491140000E-02 1.859604230E+02
6.672670000E-03 -4.701000000E-01 1.920500000E-02 1.858026847E+02
6.679800000E-03 -5.014000000E-01 2.607280000E-02 1.856043594E+02
6.686510000E-03 -5.320000000E-01 3.427160000E-02 1.854181030E+02
6.693560000E-03 -5.656000000E-01 4.505890000E-02 1.852228112E+02
6.702230000E-03 -6.084000000E-01 6.186460000E-02 1.849832071E+02
6.710150000E-03 -6.485000000E-01 8.110230000E-02 1.847648711E+02
6.718480000E-03 -6.912000000E-01 1.058790000E-01 1.845357879E+02
6.727930000E-03 -7.394000000E-01 1.400540000E-01 1.842765903E+02
6.738700000E-03 -7.921000000E-01 1.872260000E-01 1.839820737E+02
6.752800000E-03 -8.543000000E-01 2.620980000E-01 1.835979149E+02
6.767960000E-03 -9.093000000E-01 3.569480000E-01 1.831866619E+02
6.814420000E-03 -9.505000000E-01 6.821540000E-01 1.819377144E+02
6.836430000E-03 -9.072000000E-01 8.150900000E-01 1.813519629E+02
6.861000000E-03 -8.328000000E-01 9.252750000E-01 1.807025215E+02
6.892360000E-03 -7.326000000E-01 1.009150000E+00 1.798803313E+02
6.931800000E-03 -6.330000000E-01 1.056570000E+00 1.788568626E+02
6.963110000E-03 -5.814000000E-01 1.074470000E+00 1.780526230E+02
6.980170000E-03 -5.626000000E-01 1.081520000E+00 1.776174506E+02
6.997220000E-03 -5.438000000E-01 1.088570000E+00 1.771846533E+02
7.014280000E-03 -5.278000000E-01 1.095470000E+00 1.767537081E+02
7.031330000E-03 -5.205000000E-01 1.101920000E+00 1.763251049E+02
7.040130000E-03 -5.167000000E-01 1.105250000E+00 1.761047026E+02
7.048930000E-03 -5.129000000E-01 1.108570000E+00 1.758848506E+02
7.051980000E-03 -5.116000000E-01 1.109730000E+00 1.758087799E+02
7.060660000E-03 -5.078000000E-01 1.113010000E+00 1.755926500E+02
7.086700000E-03 -4.966000000E-01 1.122850000E+00 1.749474367E+02
7.104060000E-03 -4.891000000E-01 1.129410000E+00 1.745199224E+02
7.121410000E-03 -4.817000000E-01 1.135970000E+00 1.740947369E+02
7.138810000E-03 -4.741000000E-01 1.142550000E+00 1.736704016E+02
7.151040000E-03 -4.689000000E-01 1.147170000E+00 1.733733835E+02
7.161430000E-03 -4.644000000E-01 1.151100000E+00 1.731218486E+02
7.173970000E-03 -4.655000000E-01 1.155870000E+00 1.728192340E+02
7.180850000E-03 -4.661000000E-01 1.158490000E+00 1.726536552E+02
7.187730000E-03 -4.667000000E-01 1.161110000E+00 1.724883934E+02
7.198070000E-03 -4.676000000E-01 1.165040000E+00 1.722406145E+02
7.203240000E-03 -4.681000000E-01 1.167010000E+00 1.721169918E+02
7.205830000E-03 -4.683000000E-01 1.167990000E+00 1.720551276E+02
7.207120000E-03 -4.684000000E-01 1.168480000E+00 1.720243315E+02
7.209500000E-03 -4.686000000E-01 1.169390000E+00 1.719675428E+02
7.215100000E-03 -4.699000000E-01 1.171520000E+00 1.718340702E+02
7.217780000E-03 -4.708000000E-01 1.172540000E+00 1.717702673E+02
7.223800000E-03 -4.728000000E-01 1.174830000E+00 1.716271215E+02
7.227990000E-03 -4.741000000E-01 1.176420000E+00 1.715276308E+02
7.243210000E-03 -4.791000000E-01 1.182210000E+00 1.711672035E+02
7.247560000E-03 -4.805000000E-01 1.183860000E+00 1.710644686E+02
7.260610000E-03 -4.848000000E-01 1.188830000E+00 1.707570025E+02
7.267130000E-03 -4.869000000E-01 1.191310000E+00 1.706038010E+02
7.278550000E-03 -4.906000000E-01 1.195650000E+00 1.703361246E+02
7.295680000E-03 -4.962000000E-01 1.202170000E+00 1.699361814E+02
7.304250000E-03 -4.990000000E-01 1.205430000E+00 1.697367971E+02
7.312810000E-03 -5.018000000E-01 1.208690000E+00 1.695381119E+02
7.330210000E-03 -5.075000000E-01 1.215300000E+00 1.691356728E+02
7.347060000E-03 -5.130000000E-01 1.221720000E+00 1.687477712E+02
7.365010000E-03 -5.189000000E-01 1.228540000E+00 1.683364992E+02
7.395930000E-03 -5.290000000E-01 1.240310000E+00 1.676327385E+02
7.399140000E-03 -5.300000000E-01 1.241520000E+00 1.675600137E+02
7.408170000E-03 -5.329000000E-01 1.244960000E+00 1.673557707E+02
7.417210000E-03 -5.359000000E-01 1.248400000E+00 1.671517997E+02
7.424620000E-03 -5.383000000E-01 1.251220000E+00 1.669849770E+02
7.451730000E-03 -5.472000000E-01 1.261530000E+00 1.663774721E+02
7.499160000E-03 -5.626000000E-01 1.279570000E+00 1.653251831E+02
7.534730000E-03 -5.743000000E-01 1.293110000E+00 1.645447149E+02
7.600000000E-03 -5.956000000E-01 1.317930000E+00 1.631315789E+02
7.682650000E-03 -6.422000000E-01 1.349870000E+00 1.613766083E+02
7.727090000E-03 -6.830000000E-01 1.367060000E+00 1.604485000E+02
7.759640000E-03 -7.179000000E-01 1.379770000E+00 1.597754535E+02
7.797590000E-03 -7.668000000E-01 1.395430000E+00 1.589978442E+02
7.831790000E-03 -8.223000000E-01 1.412950000E+00 1.583035296E+02
7.863470000E-03 -8.868000000E-01 1.438050000E+00 1.576657633E+02
7.888440000E-03 -9.463000000E-01 1.470310000E+00 1.571666895E+02
7.907240000E-03 -9.940000000E-01 1.505640000E+00 1.567930150E+02
7.914700000E-03 -1.012800000E+00 1.522800000E+00 1.566452298E+02
7.944820000E-03 -1.082100000E+00 1.611450000E+00 1.560513643E+02
7.956160000E-03 -1.102900000E+00 1.652150000E+00 1.558289426E+02
7.973000000E-03 -1.125400000E+00 1.718360000E+00 1.554998119E+02
7.992060000E-03 -1.131300000E+00 1.797820000E+00 1.551289655E+02
8.000000000E-03 -1.133800000E+00 1.830940000E+00 1.549750000E+02
8.010980000E-03 -1.131800000E+00 1.875860000E+00 1.547625883E+02
8.017910000E-03 -1.127500000E+00 1.903750000E+00 1.546288247E+02
8.028310000E-03 -1.116200000E+00 1.942960000E+00 1.544285161E+02
8.038700000E-03 -1.102300000E+00 1.979660000E+00 1.542289176E+02
8.046370000E-03 -1.090400000E+00 2.004700000E+00 1.540819028E+02
8.054030000E-03 -1.077700000E+00 2.028220000E+00 1.539353591E+02
8.065080000E-03 -1.057500000E+00 2.058050000E+00 1.537244516E+02
