# Data retrieved from https://www-nds.iaea.org/epdl97/za1to100.htm 03/01/2021
# Element, K  (Z = 19) 
# Atomic weight, g mol-1 = 39.102 
# Nominal density, g cm-3 =  8.62000E-1 
# Relativistic correction estimate f_rel(5CL)*,  e atom-1 =  0 
# Nuclear Thomson correction f_NT*, e atom-1 =  0 
#    E [keV]      f1 [e atom-1]      f2 [e atom-1]    Wavelength [nm] 
1.000000000E-03 4.713700000E+00 0.000000000E+00 1.239800000E+03
1.060910000E-03 4.713100000E+00 0.000000000E+00 1.168619393E+03
1.114200000E-03 4.712600000E+00 0.000000000E+00 1.112726620E+03
1.160830000E-03 4.712100000E+00 0.000000000E+00 1.068028910E+03
1.201630000E-03 4.711700000E+00 0.000000000E+00 1.031765186E+03
1.237330000E-03 4.711300000E+00 0.000000000E+00 1.001996234E+03
1.268570000E-03 4.711000000E+00 0.000000000E+00 9.773209204E+02
1.295900000E-03 4.710700000E+00 0.000000000E+00 9.567096227E+02
1.319820000E-03 4.710400000E+00 0.000000000E+00 9.393705202E+02
1.340750000E-03 4.710200000E+00 0.000000000E+00 9.247063211E+02
1.359060000E-03 4.710000000E+00 0.000000000E+00 9.122481715E+02
1.375080000E-03 4.709900000E+00 0.000000000E+00 9.016202694E+02
1.389100000E-03 4.709700000E+00 0.000000000E+00 8.925203369E+02
1.401370000E-03 4.709600000E+00 0.000000000E+00 8.847056809E+02
1.412110000E-03 4.709500000E+00 0.000000000E+00 8.779769281E+02
1.430890000E-03 4.709300000E+00 0.000000000E+00 8.664537456E+02
1.444980000E-03 4.709100000E+00 0.000000000E+00 8.580049551E+02
1.455540000E-03 4.709000000E+00 0.000000000E+00 8.517800954E+02
1.463470000E-03 4.709000000E+00 0.000000000E+00 8.471646156E+02
1.469410000E-03 4.708900000E+00 0.000000000E+00 8.437400045E+02
1.473870000E-03 4.708800000E+00 0.000000000E+00 8.411868075E+02
1.480560000E-03 4.708800000E+00 0.000000000E+00 8.373858540E+02
1.483900000E-03 4.708700000E+00 0.000000000E+00 8.355010445E+02
1.487240000E-03 4.708700000E+00 0.000000000E+00 8.336247008E+02
1.490900000E-03 4.708700000E+00 0.000000000E+00 8.315782413E+02
1.494300000E-03 4.708600000E+00 0.000000000E+00 8.296861407E+02
1.494560000E-03 4.708600000E+00 0.000000000E+00 8.295418049E+02
1.498230000E-03 4.708600000E+00 0.000000000E+00 8.275097949E+02
1.501890000E-03 4.708600000E+00 0.000000000E+00 8.254932119E+02
1.505550000E-03 4.708500000E+00 0.000000000E+00 8.234864335E+02
1.509210000E-03 4.708500000E+00 0.000000000E+00 8.214893885E+02
1.511040000E-03 4.708500000E+00 0.000000000E+00 8.204944939E+02
1.512870000E-03 4.708400000E+00 0.000000000E+00 8.195020061E+02
1.514700000E-03 4.708400000E+00 0.000000000E+00 8.185119166E+02
1.517440000E-03 4.708400000E+00 0.000000000E+00 8.170339519E+02
1.518820000E-03 4.708400000E+00 0.000000000E+00 8.162915948E+02
1.520190000E-03 4.708400000E+00 0.000000000E+00 8.155559502E+02
1.522020000E-03 4.708400000E+00 0.000000000E+00 8.145753669E+02
1.522930000E-03 4.708300000E+00 0.000000000E+00 8.140886318E+02
1.523850000E-03 4.708300000E+00 0.000000000E+00 8.135971388E+02
1.526600000E-03 4.708300000E+00 0.000000000E+00 8.121315341E+02
1.527280000E-03 4.708300000E+00 0.000000000E+00 8.117699440E+02
1.527740000E-03 4.708300000E+00 0.000000000E+00 8.115255214E+02
1.528170000E-03 4.708300000E+00 0.000000000E+00 8.112971724E+02
1.528540000E-03 4.708300000E+00 0.000000000E+00 8.111007890E+02
1.530510000E-03 4.708300000E+00 0.000000000E+00 8.100567785E+02
1.530840000E-03 4.708300000E+00 0.000000000E+00 8.098821562E+02
1.531630000E-03 4.708300000E+00 0.000000000E+00 8.094644268E+02
1.534830000E-03 4.708200000E+00 0.000000000E+00 8.077767570E+02
1.536660000E-03 4.708200000E+00 0.000000000E+00 8.068147801E+02
1.538490000E-03 4.708200000E+00 0.000000000E+00 8.058550917E+02
1.540320000E-03 4.708200000E+00 0.000000000E+00 8.048976836E+02
1.543070000E-03 4.708100000E+00 0.000000000E+00 8.034632259E+02
1.545810000E-03 4.708100000E+00 0.000000000E+00 8.020390604E+02
1.549470000E-03 4.708100000E+00 0.000000000E+00 8.001445656E+02
1.553150000E-03 4.708000000E+00 0.000000000E+00 7.982487203E+02
1.556830000E-03 4.708000000E+00 0.000000000E+00 7.963618378E+02
1.560500000E-03 4.708000000E+00 0.000000000E+00 7.944889459E+02
1.564180000E-03 4.707900000E+00 0.000000000E+00 7.926197752E+02
1.567860000E-03 4.707900000E+00 0.000000000E+00 7.907593790E+02
1.571020000E-03 4.707800000E+00 0.000000000E+00 7.891688203E+02
1.574160000E-03 4.707800000E+00 0.000000000E+00 7.875946537E+02
1.580420000E-03 4.707800000E+00 0.000000000E+00 7.844750130E+02
1.586640000E-03 4.707700000E+00 0.000000000E+00 7.813996874E+02
1.592800000E-03 4.707600000E+00 0.000000000E+00 7.783776996E+02
1.605030000E-03 4.707500000E+00 0.000000000E+00 7.724466209E+02
1.617080000E-03 4.707400000E+00 0.000000000E+00 7.666905781E+02
1.628930000E-03 4.707300000E+00 0.000000000E+00 7.611131233E+02
1.640600000E-03 4.707100000E+00 0.000000000E+00 7.556991345E+02
1.663570000E-03 4.706900000E+00 0.000000000E+00 7.452647018E+02
1.685830000E-03 4.706700000E+00 0.000000000E+00 7.354240938E+02
1.707390000E-03 4.706400000E+00 0.000000000E+00 7.261375550E+02
1.749160000E-03 4.706000000E+00 0.000000000E+00 7.087973656E+02
1.788320000E-03 4.705600000E+00 0.000000000E+00 6.932763711E+02
1.825040000E-03 4.705200000E+00 0.000000000E+00 6.793275764E+02
1.893880000E-03 4.704500000E+00 0.000000000E+00 6.546349294E+02
1.954110000E-03 4.703900000E+00 0.000000000E+00 6.344576303E+02
2.059520000E-03 4.702200000E+00 0.000000000E+00 6.019849285E+02
2.138580000E-03 4.700500000E+00 0.000000000E+00 5.797304754E+02
2.257170000E-03 4.697900000E+00 0.000000000E+00 5.492718758E+02
2.375750000E-03 4.695400000E+00 0.000000000E+00 5.218562559E+02
2.378390000E-03 4.695300000E+00 0.000000000E+00 5.212769983E+02
2.387450000E-03 4.695100000E+00 0.000000000E+00 5.192988335E+02
2.390100000E-03 4.695100000E+00 0.000000000E+00 5.187230660E+02
2.393300000E-03 4.695000000E+00 0.000000000E+00 5.180294990E+02
2.395950000E-03 4.695000000E+00 0.000000000E+00 5.174565412E+02
2.399140000E-03 4.694900000E+00 0.000000000E+00 5.167685087E+02
2.401810000E-03 4.694800000E+00 0.000000000E+00 5.161940370E+02
2.407660000E-03 4.694700000E+00 0.000000000E+00 5.149398171E+02
2.422530000E-03 4.694400000E+00 0.000000000E+00 5.117790079E+02
2.428380000E-03 4.694300000E+00 0.000000000E+00 5.105461254E+02
2.432450000E-03 4.694200000E+00 0.000000000E+00 5.096918744E+02
2.436930000E-03 4.694100000E+00 0.000000000E+00 5.087548678E+02
2.442780000E-03 4.693900000E+00 0.000000000E+00 5.075364953E+02
2.448640000E-03 4.693800000E+00 0.000000000E+00 5.063218766E+02
2.463470000E-03 4.693500000E+00 0.000000000E+00 5.032738373E+02
2.466200000E-03 4.693400000E+00 0.000000000E+00 5.027167302E+02
2.469320000E-03 4.693400000E+00 0.000000000E+00 5.020815447E+02
2.472050000E-03 4.693300000E+00 0.000000000E+00 5.015270727E+02
2.475160000E-03 4.693300000E+00 0.000000000E+00 5.008969117E+02
2.477910000E-03 4.693200000E+00 0.000000000E+00 5.003410132E+02
2.481010000E-03 4.693100000E+00 0.000000000E+00 4.997158415E+02
2.483760000E-03 4.693100000E+00 0.000000000E+00 4.991625600E+02
2.492710000E-03 4.692900000E+00 0.000000000E+00 4.973703319E+02
2.495470000E-03 4.692800000E+00 0.000000000E+00 4.968202383E+02
2.498310000E-03 4.692800000E+00 0.000000000E+00 4.962554687E+02
2.504290000E-03 4.692600000E+00 0.000000000E+00 4.950704591E+02
2.510280000E-03 4.692500000E+00 0.000000000E+00 4.938891279E+02
2.522260000E-03 4.692200000E+00 0.000000000E+00 4.915432985E+02
2.528240000E-03 4.692100000E+00 0.000000000E+00 4.903806601E+02
2.534230000E-03 4.692000000E+00 0.000000000E+00 4.892215782E+02
2.540220000E-03 4.691900000E+00 0.000000000E+00 4.880679626E+02
2.546200000E-03 4.691700000E+00 0.000000000E+00 4.869216872E+02
2.552190000E-03 4.691600000E+00 0.000000000E+00 4.857788801E+02
2.792000000E-03 4.686500000E+00 0.000000000E+00 4.440544413E+02
2.851950000E-03 4.685200000E+00 0.000000000E+00 4.347201038E+02
2.871930000E-03 4.684800000E+00 0.000000000E+00 4.316957586E+02
2.874360000E-03 4.684700000E+00 0.000000000E+00 4.313308006E+02
2.886070000E-03 4.684500000E+00 0.000000000E+00 4.295807101E+02
2.888510000E-03 4.684400000E+00 0.000000000E+00 4.292178320E+02
2.893140000E-03 4.684300000E+00 0.000000000E+00 4.285309387E+02
2.895590000E-03 4.684300000E+00 0.000000000E+00 4.281683526E+02
2.900210000E-03 4.684200000E+00 0.000000000E+00 4.274862855E+02
2.902660000E-03 4.684100000E+00 0.000000000E+00 4.271254642E+02
2.909740000E-03 4.684000000E+00 0.000000000E+00 4.260861795E+02
2.914420000E-03 4.683800000E+00 0.000000000E+00 4.254019668E+02
2.921450000E-03 4.683700000E+00 0.000000000E+00 4.243783053E+02
2.928480000E-03 4.683500000E+00 0.000000000E+00 4.233595585E+02
2.938040000E-03 4.683300000E+00 0.000000000E+00 4.219820016E+02
2.945110000E-03 4.683200000E+00 0.000000000E+00 4.209689961E+02
2.952180000E-03 4.683000000E+00 0.000000000E+00 4.199608425E+02
2.959260000E-03 4.682900000E+00 0.000000000E+00 4.189560904E+02
2.969870000E-03 4.682700000E+00 0.000000000E+00 4.174593501E+02
2.980480000E-03 4.682400000E+00 0.000000000E+00 4.159732661E+02
2.987560000E-03 4.682300000E+00 0.000000000E+00 4.149874814E+02
2.992100000E-03 4.682200000E+00 0.000000000E+00 4.143578089E+02
2.994630000E-03 4.682100000E+00 0.000000000E+00 4.140077405E+02
2.999170000E-03 4.682000000E+00 0.000000000E+00 4.133810354E+02
3.001710000E-03 4.682000000E+00 0.000000000E+00 4.130312389E+02
3.008780000E-03 4.681800000E+00 0.000000000E+00 4.120607023E+02
3.013310000E-03 4.681700000E+00 0.000000000E+00 4.114412390E+02
3.015860000E-03 4.681700000E+00 0.000000000E+00 4.110933531E+02
3.032070000E-03 4.681300000E+00 0.000000000E+00 4.088955730E+02
3.080690000E-03 4.680300000E+00 0.000000000E+00 4.024423100E+02
3.082710000E-03 4.680200000E+00 0.000000000E+00 4.021786026E+02
3.095860000E-03 4.680000000E+00 0.000000000E+00 4.004703055E+02
3.097890000E-03 4.679900000E+00 0.000000000E+00 4.002078834E+02
3.103440000E-03 4.679800000E+00 0.000000000E+00 3.994921764E+02
3.105480000E-03 4.679800000E+00 0.000000000E+00 3.992297487E+02
3.111020000E-03 4.679600000E+00 0.000000000E+00 3.985188138E+02
3.113060000E-03 4.679600000E+00 0.000000000E+00 3.982576629E+02
3.120650000E-03 4.679400000E+00 0.000000000E+00 3.972890263E+02
3.141350000E-03 4.679000000E+00 0.000000000E+00 3.946710809E+02
3.151000000E-03 4.678800000E+00 0.000000000E+00 3.934623929E+02
3.158590000E-03 4.678600000E+00 0.000000000E+00 3.925169142E+02
3.166180000E-03 4.678500000E+00 0.000000000E+00 3.915759685E+02
3.173770000E-03 4.678300000E+00 0.000000000E+00 3.906395233E+02
3.196530000E-03 4.677800000E+00 0.000000000E+00 3.878580836E+02
3.202020000E-03 4.677700000E+00 0.000000000E+00 3.871930844E+02
3.204120000E-03 4.677600000E+00 0.000000000E+00 3.869393156E+02
3.209600000E-03 4.677500000E+00 0.000000000E+00 3.862786640E+02
3.211700000E-03 4.677500000E+00 0.000000000E+00 3.860260921E+02
3.217180000E-03 4.677400000E+00 0.000000000E+00 3.853685526E+02
3.219290000E-03 4.677300000E+00 0.000000000E+00 3.851159728E+02
3.226880000E-03 4.677200000E+00 0.000000000E+00 3.842101349E+02
3.232350000E-03 4.677000000E+00 0.000000000E+00 3.835599486E+02
3.234470000E-03 4.677000000E+00 0.000000000E+00 3.833085482E+02
3.388480000E-03 4.673700000E+00 0.000000000E+00 3.658867693E+02
3.389580000E-03 4.673700000E+00 0.000000000E+00 3.657680303E+02
3.405160000E-03 4.673300000E+00 0.000000000E+00 3.640944919E+02
3.406270000E-03 4.673300000E+00 0.000000000E+00 3.639758445E+02
3.414610000E-03 4.673100000E+00 0.000000000E+00 3.630868533E+02
3.422950000E-03 4.673000000E+00 0.000000000E+00 3.622021940E+02
3.431290000E-03 4.672800000E+00 0.000000000E+00 3.613218352E+02
3.455200000E-03 4.672300000E+00 0.000000000E+00 3.588214865E+02
3.464670000E-03 4.672100000E+00 0.000000000E+00 3.578407179E+02
3.473010000E-03 4.671900000E+00 0.000000000E+00 3.569814081E+02
3.481350000E-03 4.671700000E+00 0.000000000E+00 3.561262154E+02
3.489700000E-03 4.671500000E+00 0.000000000E+00 3.552740923E+02
3.514730000E-03 4.671000000E+00 0.000000000E+00 3.527440230E+02
3.523070000E-03 4.670800000E+00 0.000000000E+00 3.519089885E+02
3.531410000E-03 4.670600000E+00 0.000000000E+00 3.510778981E+02
3.539750000E-03 4.670500000E+00 0.000000000E+00 3.502507239E+02
3.548100000E-03 4.670300000E+00 0.000000000E+00 3.494264536E+02
3.555280000E-03 4.670100000E+00 0.000000000E+00 3.487207759E+02
3.556440000E-03 4.670100000E+00 0.000000000E+00 3.486070340E+02
3.564380000E-03 4.669900000E+00 0.000000000E+00 3.478304782E+02
3.572900000E-03 4.669800000E+00 0.000000000E+00 3.470010356E+02
3.588880000E-03 4.669400000E+00 0.000000000E+00 3.454559640E+02
3.598470000E-03 4.669200000E+00 0.000000000E+00 3.445353164E+02
3.606990000E-03 4.669000000E+00 0.000000000E+00 3.437214963E+02
3.614430000E-03 4.668900000E+00 0.000000000E+00 3.430139745E+02
3.615510000E-03 4.668800000E+00 0.000000000E+00 3.429115118E+02
3.624030000E-03 4.668700000E+00 0.000000000E+00 3.421053358E+02
3.631470000E-03 4.668500000E+00 0.000000000E+00 3.414044450E+02
3.632560000E-03 4.668500000E+00 0.000000000E+00 3.413020019E+02
3.638330000E-03 4.668400000E+00 0.000000000E+00 3.407607336E+02
3.638910000E-03 4.668300000E+00 0.000000000E+00 3.407064203E+02
3.656830000E-03 4.668000000E+00 0.000000000E+00 3.390368160E+02
3.665780000E-03 4.667800000E+00 0.000000000E+00 3.382090578E+02
3.674740000E-03 4.667600000E+00 0.000000000E+00 3.373844136E+02
3.683700000E-03 4.667400000E+00 0.000000000E+00 3.365637810E+02
3.709970000E-03 4.666800000E+00 0.000000000E+00 3.341805998E+02
3.719520000E-03 4.666600000E+00 0.000000000E+00 3.333225793E+02
3.728480000E-03 4.666400000E+00 0.000000000E+00 3.325215637E+02
3.737440000E-03 4.666200000E+00 0.000000000E+00 3.317243889E+02
3.746390000E-03 4.666000000E+00 0.000000000E+00 3.309319105E+02
3.755350000E-03 4.665800000E+00 0.000000000E+00 3.301423303E+02
3.772660000E-03 4.665500000E+00 0.000000000E+00 3.286275466E+02
3.778560000E-03 4.665300000E+00 0.000000000E+00 3.281144140E+02
3.782220000E-03 4.665300000E+00 0.000000000E+00 3.277969023E+02
3.791180000E-03 4.665100000E+00 0.000000000E+00 3.270221936E+02
3.797160000E-03 4.665000000E+00 0.000000000E+00 3.265071790E+02
3.800130000E-03 4.664900000E+00 0.000000000E+00 3.262519966E+02
3.806460000E-03 4.664800000E+00 0.000000000E+00 3.257094518E+02
3.815760000E-03 4.664600000E+00 0.000000000E+00 3.249156131E+02
3.818050000E-03 4.664500000E+00 0.000000000E+00 3.247207344E+02
3.825060000E-03 4.664400000E+00 0.000000000E+00 3.241256346E+02
3.834360000E-03 4.664200000E+00 0.000000000E+00 3.233394882E+02
3.843660000E-03 4.664000000E+00 0.000000000E+00 3.225571461E+02
3.852960000E-03 4.663800000E+00 0.000000000E+00 3.217785806E+02
3.862260000E-03 4.663600000E+00 0.000000000E+00 3.210037646E+02
3.871560000E-03 4.663400000E+00 0.000000000E+00 3.202326711E+02
3.880860000E-03 4.663200000E+00 0.000000000E+00 3.194652732E+02
3.890160000E-03 4.663000000E+00 0.000000000E+00 3.187015444E+02
3.912180000E-03 4.662500000E+00 0.000000000E+00 3.169077087E+02
3.918060000E-03 4.662400000E+00 0.000000000E+00 3.164321118E+02
3.927360000E-03 4.662200000E+00 0.000000000E+00 3.156827996E+02
3.936660000E-03 4.662000000E+00 0.000000000E+00 3.149370278E+02
3.945960000E-03 4.661800000E+00 0.000000000E+00 3.141947714E+02
3.950360000E-03 4.661700000E+00 0.000000000E+00 3.138448141E+02
3.964560000E-03 4.661400000E+00 0.000000000E+00 3.127207055E+02
3.970580000E-03 4.661200000E+00 0.000000000E+00 3.122465735E+02
3.980330000E-03 4.661000000E+00 0.000000000E+00 3.114817113E+02
4.020450000E-03 4.659800000E+00 0.000000000E+00 3.083734408E+02
4.097620000E-03 4.656700000E+00 6.779170000E-07 3.025658797E+02
4.140740000E-03 4.654700000E+00 3.743860000E-05 2.994150804E+02
4.173170000E-03 4.653000000E+00 2.859470000E-04 2.970883046E+02
4.190600000E-03 4.652100000E+00 6.219820000E-04 2.958526225E+02
4.208620000E-03 4.651400000E+00 1.128200000E-03 2.945858738E+02
4.225550000E-03 4.650800000E+00 1.657550000E-03 2.934055922E+02
4.264660000E-03 4.650200000E+00 2.462720000E-03 2.907148518E+02
4.288580000E-03 4.650000000E+00 2.516610000E-03 2.890933596E+02
4.312800000E-03 4.649500000E+00 2.389910000E-03 2.874698572E+02
4.399970000E-03 4.647100000E+00 1.740930000E-03 2.817746485E+02
4.479110000E-03 4.644400000E+00 1.253470000E-03 2.767960599E+02
4.543970000E-03 4.642000000E+00 9.278290000E-04 2.728451112E+02
4.603990000E-03 4.639700000E+00 6.799830000E-04 2.692881609E+02
4.651240000E-03 4.637900000E+00 5.177170000E-04 2.665525752E+02
4.705490000E-03 4.635800000E+00 3.643100000E-04 2.634794676E+02
4.752000000E-03 4.634000000E+00 2.586390000E-04 2.609006734E+02
4.793150000E-03 4.632400000E+00 1.834650000E-04 2.586607972E+02
4.828180000E-03 4.631000000E+00 1.321650000E-04 2.567841298E+02
4.859250000E-03 4.629800000E+00 9.590510000E-05 2.551422545E+02
4.885280000E-03 4.628800000E+00 7.186110000E-05 2.537827924E+02
4.909610000E-03 4.627800000E+00 5.438310000E-05 2.525251497E+02
4.928500000E-03 4.627000000E+00 4.402440000E-05 2.515572689E+02
4.947380000E-03 4.626300000E+00 3.637030000E-05 2.505972858E+02
4.962000000E-03 4.625700000E+00 3.224490000E-05 2.498589279E+02
4.977000000E-03 4.625100000E+00 2.960640000E-05 2.491058871E+02
4.995000000E-03 4.624400000E+00 2.851350000E-05 2.482082082E+02
5.010000000E-03 4.623800000E+00 2.928470000E-05 2.474650699E+02
5.025000000E-03 4.623200000E+00 3.154370000E-05 2.467263682E+02
5.043870000E-03 4.622500000E+00 3.644190000E-05 2.458033217E+02
5.061750000E-03 4.621800000E+00 4.313030000E-05 2.449350521E+02
5.080590000E-03 4.621000000E+00 5.227480000E-05 2.440267764E+02
5.104900000E-03 4.620100000E+00 6.713480000E-05 2.428646986E+02
5.130750000E-03 4.619000000E+00 8.657350000E-05 2.416410856E+02
5.165000000E-03 4.617700000E+00 1.178440000E-04 2.400387222E+02
5.204120000E-03 4.616100000E+00 1.608140000E-04 2.382343220E+02
5.251410000E-03 4.614300000E+00 2.223520000E-04 2.360889742E+02
5.304990000E-03 4.612200000E+00 3.037940000E-04 2.337044933E+02
5.394050000E-03 4.608700000E+00 4.637290000E-04 2.298458487E+02
5.509360000E-03 4.604200000E+00 7.095770000E-04 2.250352128E+02
5.669230000E-03 4.598000000E+00 1.108080000E-03 2.186893105E+02
5.842970000E-03 4.591400000E+00 1.596370000E-03 2.121866106E+02
6.503270000E-03 4.555200000E+00 3.696920000E-03 1.906425537E+02
7.420000000E-03 4.501300000E+00 6.569130000E-03 1.670889488E+02
8.049700000E-03 4.464600000E+00 8.277210000E-03 1.540181622E+02
9.015710000E-03 4.407100000E+00 1.042220000E-02 1.375155146E+02
9.621910000E-03 4.351400000E+00 1.148780000E-02 1.288517560E+02
1.019450000E-02 4.298900000E+00 1.233530000E-02 1.216145961E+02
1.098300000E-02 4.226600000E+00 1.328950000E-02 1.128835473E+02
1.128390000E-02 4.197800000E+00 1.359540000E-02 1.098733594E+02
1.218520000E-02 4.085300000E+00 1.436500000E-02 1.017463809E+02
1.265630000E-02 4.026400000E+00 1.468080000E-02 9.795911917E+01
1.298430000E-02 3.974500000E+00 1.488720000E-02 9.548454672E+01
1.370920000E-02 3.859600000E+00 1.525450000E-02 9.043561988E+01
1.434350000E-02 3.741600000E+00 1.549320000E-02 8.643636490E+01
1.503370000E-02 3.603300000E+00 1.570340000E-02 8.246805510E+01
1.544320000E-02 3.508200000E+00 1.582820000E-02 8.028128885E+01
1.580920000E-02 3.414900000E+00 1.593960000E-02 7.842269059E+01
1.640080000E-02 3.247200000E+00 1.605510000E-02 7.559387347E+01
1.655280000E-02 3.199500000E+00 1.608150000E-02 7.489971485E+01
1.669090000E-02 3.156100000E+00 1.610560000E-02 7.427999688E+01
1.711050000E-02 3.011900000E+00 1.617860000E-02 7.245843196E+01
1.752880000E-02 2.851000000E+00 1.624060000E-02 7.072931404E+01
1.784260000E-02 2.717600000E+00 1.627260000E-02 6.948538890E+01
1.808090000E-02 2.609200000E+00 1.629700000E-02 6.856959554E+01
1.843080000E-02 2.432200000E+00 1.633270000E-02 6.726783428E+01
1.860730000E-02 2.334300000E+00 1.635070000E-02 6.662976359E+01
