# Data retrieved from https://www-nds.iaea.org/epdl97/za1to100.htm 03/01/2021
# Element, La  (Z = 57) 
# Atomic weight, g mol-1 = 138.91 
# Nominal density, g cm-3 =  6.15400E+0 
# Relativistic correction estimate f_rel(5CL)*,  e atom-1 =  0 
# Nuclear Thomson correction f_NT*, e atom-1 =  0 
#    E [keV]      f1 [e atom-1]      f2 [e atom-1]    Wavelength [nm] 
1.000000000E-03 1.955000000E+01 0.000000000E+00 1.239800000E+03
1.125000000E-03 1.954460000E+01 0.000000000E+00 1.102044444E+03
1.251470000E-03 1.953910000E+01 0.000000000E+00 9.906749662E+02
1.362120000E-03 1.953430000E+01 0.000000000E+00 9.101988077E+02
1.458950000E-03 1.953020000E+01 0.000000000E+00 8.497892320E+02
1.543670000E-03 1.952650000E+01 0.000000000E+00 8.031509325E+02
1.617800000E-03 1.952330000E+01 0.000000000E+00 7.663493633E+02
1.682670000E-03 1.952050000E+01 0.000000000E+00 7.368051965E+02
1.739430000E-03 1.951800000E+01 0.000000000E+00 7.127622267E+02
1.789090000E-03 1.951590000E+01 0.000000000E+00 6.929779944E+02
1.876000000E-03 1.951210000E+01 0.000000000E+00 6.608742004E+02
1.941180000E-03 1.950930000E+01 0.000000000E+00 6.386836872E+02
2.000000000E-03 1.950680000E+01 0.000000000E+00 6.199000000E+02
2.026730000E-03 1.950440000E+01 0.000000000E+00 6.117243047E+02
2.054230000E-03 1.950200000E+01 0.000000000E+00 6.035351446E+02
2.095480000E-03 1.949840000E+01 0.000000000E+00 5.916544181E+02
2.136730000E-03 1.949470000E+01 0.000000000E+00 5.802324112E+02
2.141990000E-03 1.949430000E+01 0.000000000E+00 5.788075575E+02
2.147250000E-03 1.949380000E+01 0.000000000E+00 5.773896845E+02
2.152510000E-03 1.949330000E+01 0.000000000E+00 5.759787411E+02
2.157760000E-03 1.949290000E+01 0.000000000E+00 5.745773395E+02
2.163020000E-03 1.949240000E+01 0.000000000E+00 5.731800908E+02
2.168280000E-03 1.949200000E+01 0.000000000E+00 5.717896213E+02
2.173540000E-03 1.949150000E+01 0.000000000E+00 5.704058816E+02
2.178800000E-03 1.949100000E+01 0.000000000E+00 5.690288232E+02
2.184060000E-03 1.949060000E+01 0.000000000E+00 5.676583977E+02
2.189320000E-03 1.949010000E+01 0.000000000E+00 5.662945572E+02
2.194580000E-03 1.948960000E+01 0.000000000E+00 5.649372545E+02
2.199840000E-03 1.948920000E+01 0.000000000E+00 5.635864427E+02
2.205100000E-03 1.948870000E+01 0.000000000E+00 5.622420752E+02
2.215620000E-03 1.948780000E+01 0.000000000E+00 5.595724899E+02
2.220880000E-03 1.948730000E+01 0.000000000E+00 5.582471813E+02
2.226130000E-03 1.948690000E+01 0.000000000E+00 5.569306375E+02
2.231390000E-03 1.948640000E+01 0.000000000E+00 5.556177988E+02
2.236650000E-03 1.948590000E+01 0.000000000E+00 5.543111350E+02
2.241910000E-03 1.948550000E+01 0.000000000E+00 5.530106026E+02
2.251010000E-03 1.948470000E+01 0.000000000E+00 5.507749855E+02
2.264650000E-03 1.948350000E+01 0.000000000E+00 5.474576645E+02
2.271470000E-03 1.948290000E+01 0.000000000E+00 5.458139443E+02
2.278290000E-03 1.948230000E+01 0.000000000E+00 5.441800649E+02
2.283900000E-03 1.948180000E+01 0.000000000E+00 5.428433819E+02
2.289510000E-03 1.948130000E+01 0.000000000E+00 5.415132496E+02
2.295120000E-03 1.948080000E+01 0.000000000E+00 5.401896197E+02
2.300720000E-03 1.948030000E+01 0.000000000E+00 5.388747870E+02
2.306330000E-03 1.947980000E+01 0.000000000E+00 5.375640086E+02
2.311940000E-03 1.947930000E+01 0.000000000E+00 5.362595915E+02
2.319190000E-03 1.947870000E+01 0.000000000E+00 5.345831950E+02
2.323150000E-03 1.947830000E+01 0.000000000E+00 5.336719540E+02
2.328760000E-03 1.947780000E+01 0.000000000E+00 5.323863344E+02
2.334370000E-03 1.947730000E+01 0.000000000E+00 5.311068939E+02
2.336310000E-03 1.947720000E+01 0.000000000E+00 5.306658791E+02
2.339980000E-03 1.947680000E+01 0.000000000E+00 5.298335883E+02
2.342020000E-03 1.947670000E+01 0.000000000E+00 5.293720805E+02
2.347730000E-03 1.947610000E+01 0.000000000E+00 5.280845753E+02
2.353440000E-03 1.947560000E+01 0.000000000E+00 5.268033177E+02
2.356290000E-03 1.947540000E+01 0.000000000E+00 5.261661340E+02
2.360570000E-03 1.947500000E+01 0.000000000E+00 5.252121310E+02
2.362710000E-03 1.947480000E+01 0.000000000E+00 5.247364255E+02
2.363780000E-03 1.947470000E+01 0.000000000E+00 5.244988958E+02
2.367710000E-03 1.947440000E+01 0.000000000E+00 5.236283160E+02
2.368420000E-03 1.947430000E+01 0.000000000E+00 5.234713438E+02
2.368960000E-03 1.947430000E+01 0.000000000E+00 5.233520195E+02
2.369360000E-03 1.947420000E+01 0.000000000E+00 5.232636661E+02
2.369960000E-03 1.947420000E+01 0.000000000E+00 5.231311921E+02
2.370260000E-03 1.947420000E+01 0.000000000E+00 5.230649802E+02
2.370920000E-03 1.947410000E+01 0.000000000E+00 5.229193731E+02
2.374930000E-03 1.947380000E+01 0.000000000E+00 5.220364390E+02
2.376270000E-03 1.947360000E+01 0.000000000E+00 5.217420579E+02
2.381980000E-03 1.947310000E+01 0.000000000E+00 5.204913559E+02
2.384830000E-03 1.947290000E+01 0.000000000E+00 5.198693408E+02
2.387690000E-03 1.947260000E+01 0.000000000E+00 5.192466359E+02
2.391970000E-03 1.947230000E+01 0.000000000E+00 5.183175374E+02
2.395180000E-03 1.947200000E+01 0.000000000E+00 5.176228926E+02
2.400000000E-03 1.947150000E+01 0.000000000E+00 5.165833333E+02
2.404810000E-03 1.947110000E+01 0.000000000E+00 5.155500850E+02
2.410520000E-03 1.947060000E+01 0.000000000E+00 5.143288585E+02
2.416230000E-03 1.947010000E+01 0.000000000E+00 5.131134039E+02
2.421940000E-03 1.946960000E+01 0.000000000E+00 5.119036805E+02
2.427650000E-03 1.946910000E+01 0.000000000E+00 5.106996478E+02
2.433350000E-03 1.946860000E+01 0.000000000E+00 5.095033596E+02
2.436780000E-03 1.946830000E+01 0.000000000E+00 5.087861850E+02
2.442780000E-03 1.946780000E+01 0.000000000E+00 5.075364953E+02
2.451770000E-03 1.946700000E+01 0.000000000E+00 5.056754916E+02
2.460760000E-03 1.946620000E+01 0.000000000E+00 5.038280856E+02
2.466820000E-03 1.946570000E+01 0.000000000E+00 5.025903795E+02
2.472880000E-03 1.946510000E+01 0.000000000E+00 5.013587396E+02
2.478930000E-03 1.946460000E+01 0.000000000E+00 5.001351390E+02
2.484990000E-03 1.946410000E+01 0.000000000E+00 4.989154886E+02
2.491050000E-03 1.946350000E+01 0.000000000E+00 4.977017723E+02
2.497100000E-03 1.946300000E+01 0.000000000E+00 4.964959353E+02
2.503160000E-03 1.946250000E+01 0.000000000E+00 4.952939484E+02
2.509220000E-03 1.946190000E+01 0.000000000E+00 4.940977674E+02
2.515270000E-03 1.946140000E+01 0.000000000E+00 4.929093099E+02
2.521330000E-03 1.946090000E+01 0.000000000E+00 4.917246057E+02
2.527390000E-03 1.946030000E+01 0.000000000E+00 4.905455826E+02
2.533440000E-03 1.945980000E+01 0.000000000E+00 4.893741316E+02
2.539500000E-03 1.945930000E+01 0.000000000E+00 4.882063398E+02
2.551610000E-03 1.945820000E+01 0.000000000E+00 4.858893013E+02
2.557670000E-03 1.945770000E+01 0.000000000E+00 4.847380624E+02
2.559240000E-03 1.945750000E+01 0.000000000E+00 4.844406933E+02
2.565540000E-03 1.945700000E+01 0.000000000E+00 4.832510894E+02
2.571840000E-03 1.945640000E+01 0.000000000E+00 4.820673137E+02
2.578140000E-03 1.945590000E+01 0.000000000E+00 4.808893233E+02
2.584430000E-03 1.945530000E+01 0.000000000E+00 4.797189322E+02
2.590730000E-03 1.945470000E+01 0.000000000E+00 4.785523771E+02
2.597030000E-03 1.945420000E+01 0.000000000E+00 4.773914818E+02
2.603330000E-03 1.945360000E+01 0.000000000E+00 4.762362052E+02
2.609630000E-03 1.945310000E+01 0.000000000E+00 4.750865065E+02
2.615930000E-03 1.945250000E+01 0.000000000E+00 4.739423456E+02
2.622230000E-03 1.945200000E+01 0.000000000E+00 4.728036824E+02
2.628530000E-03 1.945140000E+01 0.000000000E+00 4.716704774E+02
2.634830000E-03 1.945090000E+01 0.000000000E+00 4.705426916E+02
2.641130000E-03 1.945030000E+01 0.000000000E+00 4.694202860E+02
2.653730000E-03 1.944920000E+01 0.000000000E+00 4.671914626E+02
2.660030000E-03 1.944860000E+01 0.000000000E+00 4.660849690E+02
2.666320000E-03 1.944810000E+01 0.000000000E+00 4.649854481E+02
2.672620000E-03 1.944750000E+01 0.000000000E+00 4.638893670E+02
2.678920000E-03 1.944700000E+01 0.000000000E+00 4.627984412E+02
2.685220000E-03 1.944640000E+01 0.000000000E+00 4.617126343E+02
2.700800000E-03 1.944500000E+01 0.000000000E+00 4.590491706E+02
2.707450000E-03 1.944450000E+01 0.000000000E+00 4.579216606E+02
2.714100000E-03 1.944390000E+01 0.000000000E+00 4.567996758E+02
2.720750000E-03 1.944330000E+01 0.000000000E+00 4.556831756E+02
2.727390000E-03 1.944270000E+01 0.000000000E+00 4.545737867E+02
2.734040000E-03 1.944210000E+01 0.000000000E+00 4.534681278E+02
2.740690000E-03 1.944150000E+01 0.000000000E+00 4.523678344E+02
2.747340000E-03 1.944090000E+01 0.000000000E+00 4.512728676E+02
2.753980000E-03 1.944040000E+01 0.000000000E+00 4.501848234E+02
2.760630000E-03 1.943980000E+01 0.000000000E+00 4.491003865E+02
2.767280000E-03 1.943920000E+01 0.000000000E+00 4.480211616E+02
2.773930000E-03 1.943860000E+01 0.000000000E+00 4.469471111E+02
2.780580000E-03 1.943800000E+01 0.000000000E+00 4.458781981E+02
2.787220000E-03 1.943740000E+01 0.000000000E+00 4.448159815E+02
2.800520000E-03 1.943630000E+01 0.000000000E+00 4.427034979E+02
2.807170000E-03 1.943570000E+01 0.000000000E+00 4.416547626E+02
2.813810000E-03 1.943510000E+01 0.000000000E+00 4.406125502E+02
2.820460000E-03 1.943450000E+01 0.000000000E+00 4.395736866E+02
2.827110000E-03 1.943390000E+01 0.000000000E+00 4.385397102E+02
2.833760000E-03 1.943330000E+01 0.000000000E+00 4.375105866E+02
2.856980000E-03 1.943130000E+01 0.000000000E+00 4.339547354E+02
2.900540000E-03 1.942750000E+01 0.000000000E+00 4.274376495E+02
2.976750000E-03 1.942070000E+01 0.000000000E+00 4.164944990E+02
3.091080000E-03 1.940710000E+01 0.000000000E+00 4.010895868E+02
3.205400000E-03 1.939260000E+01 0.000000000E+00 3.867848006E+02
3.213290000E-03 1.939160000E+01 0.000000000E+00 3.858350787E+02
3.221180000E-03 1.939060000E+01 0.000000000E+00 3.848900093E+02
3.229070000E-03 1.938960000E+01 0.000000000E+00 3.839495582E+02
3.236960000E-03 1.938860000E+01 0.000000000E+00 3.830136919E+02
3.244850000E-03 1.938760000E+01 0.000000000E+00 3.820823767E+02
3.252740000E-03 1.938660000E+01 0.000000000E+00 3.811555796E+02
3.260630000E-03 1.938560000E+01 0.000000000E+00 3.802332678E+02
3.268520000E-03 1.938460000E+01 0.000000000E+00 3.793154088E+02
3.276410000E-03 1.938360000E+01 0.000000000E+00 3.784019704E+02
3.284300000E-03 1.938260000E+01 0.000000000E+00 3.774929209E+02
3.292190000E-03 1.938160000E+01 0.000000000E+00 3.765882285E+02
3.300080000E-03 1.938060000E+01 0.000000000E+00 3.756878621E+02
3.307970000E-03 1.937960000E+01 0.000000000E+00 3.747917907E+02
3.323750000E-03 1.937760000E+01 0.000000000E+00 3.730124107E+02
3.331640000E-03 1.937660000E+01 0.000000000E+00 3.721290416E+02
3.339530000E-03 1.937560000E+01 0.000000000E+00 3.712498465E+02
3.347420000E-03 1.937460000E+01 0.000000000E+00 3.703747961E+02
3.355310000E-03 1.937360000E+01 0.000000000E+00 3.695038610E+02
3.363200000E-03 1.937260000E+01 0.000000000E+00 3.686370124E+02
3.387860000E-03 1.936950000E+01 0.000000000E+00 3.659537289E+02
3.396200000E-03 1.936840000E+01 0.000000000E+00 3.650550615E+02
3.404540000E-03 1.936740000E+01 0.000000000E+00 3.641607971E+02
3.412880000E-03 1.936630000E+01 0.000000000E+00 3.632709032E+02
3.421220000E-03 1.936520000E+01 0.000000000E+00 3.623853479E+02
3.429560000E-03 1.936420000E+01 0.000000000E+00 3.615040997E+02
3.437890000E-03 1.936310000E+01 0.000000000E+00 3.606281760E+02
3.446230000E-03 1.936210000E+01 0.000000000E+00 3.597554429E+02
3.454570000E-03 1.936100000E+01 0.000000000E+00 3.588869237E+02
3.462910000E-03 1.935990000E+01 0.000000000E+00 3.580225879E+02
3.471250000E-03 1.935890000E+01 0.000000000E+00 3.571624055E+02
3.479590000E-03 1.935780000E+01 0.000000000E+00 3.563063464E+02
3.487930000E-03 1.935680000E+01 0.000000000E+00 3.554543813E+02
3.496270000E-03 1.935570000E+01 0.000000000E+00 3.546064806E+02
3.512940000E-03 1.935360000E+01 0.000000000E+00 3.529237619E+02
3.521280000E-03 1.935250000E+01 0.000000000E+00 3.520878771E+02
3.529620000E-03 1.935150000E+01 0.000000000E+00 3.512559426E+02
3.537960000E-03 1.935030000E+01 0.000000000E+00 3.504279302E+02
3.546300000E-03 1.934900000E+01 0.000000000E+00 3.496038124E+02
3.554640000E-03 1.934780000E+01 0.000000000E+00 3.487835618E+02
3.627910000E-03 1.933620000E+01 0.000000000E+00 3.417394588E+02
3.636840000E-03 1.933470000E+01 0.000000000E+00 3.409003421E+02
3.645770000E-03 1.933320000E+01 0.000000000E+00 3.400653360E+02
3.654700000E-03 1.933180000E+01 0.000000000E+00 3.392344105E+02
3.663630000E-03 1.933030000E+01 0.000000000E+00 3.384075357E+02
3.673310000E-03 1.932870000E+01 0.000000000E+00 3.375157555E+02
3.680000000E-03 1.932760000E+01 0.000000000E+00 3.369021739E+02
3.698120000E-03 1.932460000E+01 0.000000000E+00 3.352514250E+02
3.705780000E-03 1.932330000E+01 0.000000000E+00 3.345584465E+02
3.707180000E-03 1.932310000E+01 0.000000000E+00 3.344321020E+02
3.716230000E-03 1.932160000E+01 0.000000000E+00 3.336176717E+02
3.725290000E-03 1.932010000E+01 0.000000000E+00 3.328063050E+02
3.734350000E-03 1.931860000E+01 0.000000000E+00 3.319988753E+02
3.746160000E-03 1.931670000E+01 0.000000000E+00 3.309522284E+02
3.764600000E-03 1.931360000E+01 0.000000000E+00 3.293311374E+02
3.773830000E-03 1.931210000E+01 0.000000000E+00 3.285256623E+02
3.783050000E-03 1.931060000E+01 0.000000000E+00 3.277249838E+02
3.792270000E-03 1.930910000E+01 0.000000000E+00 3.269281987E+02
3.800600000E-03 1.930770000E+01 0.000000000E+00 3.262116508E+02
3.808930000E-03 1.930630000E+01 0.000000000E+00 3.254982370E+02
3.819930000E-03 1.930450000E+01 0.000000000E+00 3.245609213E+02
3.829150000E-03 1.930300000E+01 0.000000000E+00 3.237794289E+02
3.838370000E-03 1.930150000E+01 0.000000000E+00 3.230016908E+02
3.847590000E-03 1.929990000E+01 0.000000000E+00 3.222276802E+02
3.851680000E-03 1.929930000E+01 0.000000000E+00 3.218855149E+02
3.855770000E-03 1.929860000E+01 0.000000000E+00 3.215440755E+02
3.869960000E-03 1.929620000E+01 0.000000000E+00 3.203650684E+02
3.875250000E-03 1.929540000E+01 0.000000000E+00 3.199277466E+02
3.884470000E-03 1.929380000E+01 0.000000000E+00 3.191683808E+02
3.893730000E-03 1.929230000E+01 0.000000000E+00 3.184093401E+02
3.898470000E-03 1.929150000E+01 0.000000000E+00 3.180221985E+02
3.903220000E-03 1.929080000E+01 0.000000000E+00 3.176351833E+02
3.905590000E-03 1.929040000E+01 0.000000000E+00 3.174424351E+02
3.909150000E-03 1.928980000E+01 0.000000000E+00 3.171533454E+02
3.912710000E-03 1.928920000E+01 0.000000000E+00 3.168647817E+02
3.916790000E-03 1.928850000E+01 0.000000000E+00 3.165347134E+02
3.922900000E-03 1.928750000E+01 0.000000000E+00 3.160417038E+02
3.925960000E-03 1.928700000E+01 0.000000000E+00 3.157953723E+02
3.930300000E-03 1.928630000E+01 0.000000000E+00 3.154466580E+02
3.933770000E-03 1.928560000E+01 0.000000000E+00 3.151684008E+02
3.938530000E-03 1.928470000E+01 0.000000000E+00 3.147874969E+02
3.941180000E-03 1.928420000E+01 0.000000000E+00 3.145758377E+02
3.950670000E-03 1.928240000E+01 0.000000000E+00 3.138201875E+02
3.960160000E-03 1.928060000E+01 0.000000000E+00 3.130681589E+02
3.969650000E-03 1.927870000E+01 0.000000000E+00 3.123197259E+02
3.977860000E-03 1.927720000E+01 0.000000000E+00 3.116751218E+02
3.986060000E-03 1.927560000E+01 0.000000000E+00 3.110339533E+02
3.998120000E-03 1.927330000E+01 0.000000000E+00 3.100957450E+02
4.007610000E-03 1.927090000E+01 0.000000000E+00 3.093614399E+02
4.017100000E-03 1.926850000E+01 0.000000000E+00 3.086306042E+02
4.026590000E-03 1.926600000E+01 0.000000000E+00 3.079032134E+02
4.041360000E-03 1.926200000E+01 0.000000000E+00 3.067779163E+02
4.045570000E-03 1.926080000E+01 0.000000000E+00 3.064586696E+02
4.050930000E-03 1.925930000E+01 0.000000000E+00 3.060531779E+02
4.060500000E-03 1.925660000E+01 0.000000000E+00 3.053318557E+02
4.073670000E-03 1.925300000E+01 0.000000000E+00 3.043447309E+02
4.079640000E-03 1.925130000E+01 0.000000000E+00 3.038993637E+02
4.083340000E-03 1.925030000E+01 0.000000000E+00 3.036239941E+02
4.093010000E-03 1.924760000E+01 0.000000000E+00 3.029066628E+02
4.095820000E-03 1.924680000E+01 0.000000000E+00 3.026988491E+02
4.105900000E-03 1.924410000E+01 0.000000000E+00 3.019557223E+02
4.115980000E-03 1.924130000E+01 0.000000000E+00 3.012162353E+02
4.126060000E-03 1.923850000E+01 0.000000000E+00 3.004803614E+02
4.136140000E-03 1.923570000E+01 0.000000000E+00 2.997480743E+02
4.146220000E-03 1.923290000E+01 0.000000000E+00 2.990193477E+02
4.163100000E-03 1.922820000E+01 0.000000000E+00 2.978069227E+02
4.178930000E-03 1.922380000E+01 0.000000000E+00 2.966788149E+02
4.186550000E-03 1.922170000E+01 0.000000000E+00 2.961388255E+02
4.196630000E-03 1.921890000E+01 0.000000000E+00 2.954275216E+02
4.206710000E-03 1.921610000E+01 0.000000000E+00 2.947196265E+02
4.229330000E-03 1.920980000E+01 0.000000000E+00 2.931433584E+02
4.247390000E-03 1.920390000E+01 0.000000000E+00 2.918969061E+02
4.273320000E-03 1.919540000E+01 0.000000000E+00 2.901257102E+02
4.288600000E-03 1.919040000E+01 0.000000000E+00 2.890920114E+02
4.298900000E-03 1.918700000E+01 0.000000000E+00 2.883993580E+02
4.315180000E-03 1.918170000E+01 0.000000000E+00 2.873113057E+02
4.322580000E-03 1.917920000E+01 0.000000000E+00 2.868194458E+02
4.332840000E-03 1.917590000E+01 0.000000000E+00 2.861402683E+02
4.343100000E-03 1.917250000E+01 0.000000000E+00 2.854642997E+02
4.368040000E-03 1.916410000E+01 0.000000000E+00 2.838343971E+02
4.384730000E-03 1.915820000E+01 0.000000000E+00 2.827540122E+02
4.389540000E-03 1.915640000E+01 0.000000000E+00 2.824441741E+02
4.398920000E-03 1.915310000E+01 0.000000000E+00 2.818419066E+02
4.411040000E-03 1.914870000E+01 0.000000000E+00 2.810675034E+02
4.423050000E-03 1.914440000E+01 0.000000000E+00 2.803043149E+02
4.437400000E-03 1.913930000E+01 0.000000000E+00 2.793978456E+02
4.454470000E-03 1.913310000E+01 0.000000000E+00 2.783271635E+02
4.464940000E-03 1.912940000E+01 0.000000000E+00 2.776745040E+02
4.475550000E-03 1.912560000E+01 0.000000000E+00 2.770162326E+02
4.486300000E-03 1.912170000E+01 0.000000000E+00 2.763524508E+02
4.500350000E-03 1.911670000E+01 0.000000000E+00 2.754896841E+02
4.529310000E-03 1.910630000E+01 0.000000000E+00 2.737282279E+02
4.549720000E-03 1.909900000E+01 0.000000000E+00 2.725002857E+02
4.576760000E-03 1.908930000E+01 0.000000000E+00 2.708903242E+02
4.583890000E-03 1.908670000E+01 0.000000000E+00 2.704689685E+02
4.609500000E-03 1.907750000E+01 0.000000000E+00 2.689662653E+02
4.631340000E-03 1.906970000E+01 0.000000000E+00 2.676979017E+02
4.642250000E-03 1.906580000E+01 0.000000000E+00 2.670687705E+02
4.653460000E-03 1.906170000E+01 0.000000000E+00 2.664254125E+02
4.667010000E-03 1.905690000E+01 0.000000000E+00 2.656518842E+02
4.679860000E-03 1.905210000E+01 0.000000000E+00 2.649224549E+02
4.702180000E-03 1.904210000E+01 0.000000000E+00 2.636649384E+02
4.712960000E-03 1.903720000E+01 0.000000000E+00 2.630618550E+02
4.723030000E-03 1.903270000E+01 0.000000000E+00 2.625009792E+02
4.735930000E-03 1.902690000E+01 0.000000000E+00 2.617859639E+02
4.750070000E-03 1.902060000E+01 0.000000000E+00 2.610066799E+02
4.772950000E-03 1.901030000E+01 0.000000000E+00 2.597554971E+02
4.788350000E-03 1.900340000E+01 0.000000000E+00 2.589200873E+02
4.798500000E-03 1.899880000E+01 0.000000000E+00 2.583724080E+02
4.811410000E-03 1.899300000E+01 0.000000000E+00 2.576791419E+02
4.835990000E-03 1.898200000E+01 0.000000000E+00 2.563694300E+02
4.854110000E-03 1.897380000E+01 0.000000000E+00 2.554124237E+02
4.865260000E-03 1.896850000E+01 0.000000000E+00 2.548270802E+02
4.877150000E-03 1.896250000E+01 0.000000000E+00 2.542058374E+02
4.891380000E-03 1.895530000E+01 0.000000000E+00 2.534663019E+02
4.902130000E-03 1.894990000E+01 0.000000000E+00 2.529104695E+02
4.937590000E-03 1.892800000E+01 1.313060000E-07 2.510941573E+02
4.964680000E-03 1.890610000E+01 3.080240000E-06 2.497240507E+02
