# Data retrieved from https://www-nds.iaea.org/epdl97/za1to100.htm 03/01/2021
# Element, Mg  (Z = 12) 
# Atomic weight, g mol-1 = 24.312 
# Nominal density, g cm-3 =  1.74000E+0 
# Relativistic correction estimate f_rel(5CL)*,  e atom-1 =  0 
# Nuclear Thomson correction f_NT*, e atom-1 =  0 
#    E [keV]      f1 [e atom-1]      f2 [e atom-1]    Wavelength [nm] 
1.000000000E-03 1.984300000E+00 0.000000000E+00 1.239800000E+03
1.125000000E-03 1.984000000E+00 0.000000000E+00 1.102044444E+03
1.265630000E-03 1.983600000E+00 0.000000000E+00 9.795911917E+02
1.423830000E-03 1.983200000E+00 0.000000000E+00 8.707500193E+02
1.601810000E-03 1.982800000E+00 0.000000000E+00 7.739994132E+02
1.701920000E-03 1.982500000E+00 0.000000000E+00 7.284713735E+02
1.798730000E-03 1.982300000E+00 0.000000000E+00 6.892640919E+02
1.980250000E-03 1.981800000E+00 0.000000000E+00 6.260825653E+02
2.139080000E-03 1.981000000E+00 0.000000000E+00 5.795949661E+02
2.278050000E-03 1.980300000E+00 0.000000000E+00 5.442373960E+02
2.399650000E-03 1.979600000E+00 0.000000000E+00 5.166586794E+02
2.506060000E-03 1.979100000E+00 0.000000000E+00 4.947207968E+02
2.599160000E-03 1.978600000E+00 0.000000000E+00 4.770002616E+02
2.680620000E-03 1.978200000E+00 0.000000000E+00 4.625049429E+02
2.751900000E-03 1.977800000E+00 0.000000000E+00 4.505250918E+02
2.814280000E-03 1.977500000E+00 0.000000000E+00 4.405389656E+02
2.868850000E-03 1.977200000E+00 0.000000000E+00 4.321592276E+02
2.916600000E-03 1.976900000E+00 0.000000000E+00 4.250840019E+02
2.958390000E-03 1.976700000E+00 0.000000000E+00 4.190792965E+02
2.994950000E-03 1.976500000E+00 0.000000000E+00 4.139635052E+02
3.026940000E-03 1.976300000E+00 0.000000000E+00 4.095885614E+02
3.054930000E-03 1.976200000E+00 0.000000000E+00 4.058358129E+02
3.079420000E-03 1.976000000E+00 0.000000000E+00 4.026082834E+02
3.100850000E-03 1.975900000E+00 0.000000000E+00 3.998258542E+02
3.138360000E-03 1.975700000E+00 0.000000000E+00 3.950470947E+02
3.166490000E-03 1.975600000E+00 0.000000000E+00 3.915376332E+02
3.187580000E-03 1.975500000E+00 0.000000000E+00 3.889471009E+02
3.203410000E-03 1.975400000E+00 0.000000000E+00 3.870250764E+02
3.215270000E-03 1.975300000E+00 0.000000000E+00 3.855974770E+02
3.224170000E-03 1.975300000E+00 0.000000000E+00 3.845330736E+02
3.237520000E-03 1.975200000E+00 0.000000000E+00 3.829474413E+02
3.244200000E-03 1.975200000E+00 0.000000000E+00 3.821589298E+02
3.250870000E-03 1.975100000E+00 0.000000000E+00 3.813748320E+02
3.256720000E-03 1.975100000E+00 0.000000000E+00 3.806897738E+02
3.266880000E-03 1.975100000E+00 0.000000000E+00 3.795058282E+02
3.272750000E-03 1.975000000E+00 0.000000000E+00 3.788251470E+02
3.274880000E-03 1.975000000E+00 0.000000000E+00 3.785787571E+02
3.280770000E-03 1.975000000E+00 0.000000000E+00 3.778990908E+02
3.282880000E-03 1.975000000E+00 0.000000000E+00 3.776562043E+02
3.288780000E-03 1.974900000E+00 0.000000000E+00 3.769786973E+02
3.296800000E-03 1.974900000E+00 0.000000000E+00 3.760616355E+02
3.301320000E-03 1.974900000E+00 0.000000000E+00 3.755467510E+02
3.308100000E-03 1.974800000E+00 0.000000000E+00 3.747770624E+02
3.311500000E-03 1.974800000E+00 0.000000000E+00 3.743922694E+02
3.314890000E-03 1.974800000E+00 0.000000000E+00 3.740093940E+02
3.320890000E-03 1.974800000E+00 0.000000000E+00 3.733336545E+02
3.322890000E-03 1.974800000E+00 0.000000000E+00 3.731089503E+02
3.328890000E-03 1.974700000E+00 0.000000000E+00 3.724364578E+02
3.329890000E-03 1.974700000E+00 0.000000000E+00 3.723246113E+02
3.330890000E-03 1.974700000E+00 0.000000000E+00 3.722128320E+02
3.331390000E-03 1.974700000E+00 0.000000000E+00 3.721569675E+02
3.332330000E-03 1.974700000E+00 0.000000000E+00 3.720519876E+02
3.333970000E-03 1.974700000E+00 0.000000000E+00 3.718689730E+02
3.336430000E-03 1.974700000E+00 0.000000000E+00 3.715947884E+02
3.337660000E-03 1.974700000E+00 0.000000000E+00 3.714578477E+02
3.338280000E-03 1.974700000E+00 0.000000000E+00 3.713888589E+02
3.338890000E-03 1.974700000E+00 0.000000000E+00 3.713210079E+02
3.339890000E-03 1.974700000E+00 0.000000000E+00 3.712098303E+02
3.346890000E-03 1.974600000E+00 0.000000000E+00 3.704334472E+02
3.348890000E-03 1.974600000E+00 0.000000000E+00 3.702122196E+02
3.354890000E-03 1.974600000E+00 0.000000000E+00 3.695501194E+02
3.358900000E-03 1.974600000E+00 0.000000000E+00 3.691089345E+02
3.364900000E-03 1.974500000E+00 0.000000000E+00 3.684507712E+02
3.370900000E-03 1.974500000E+00 0.000000000E+00 3.677949509E+02
3.376960000E-03 1.974500000E+00 0.000000000E+00 3.671349379E+02
3.384980000E-03 1.974400000E+00 0.000000000E+00 3.662650887E+02
3.386900000E-03 1.974400000E+00 0.000000000E+00 3.660574567E+02
3.392990000E-03 1.974400000E+00 0.000000000E+00 3.654004285E+02
3.394900000E-03 1.974400000E+00 0.000000000E+00 3.651948511E+02
3.401010000E-03 1.974300000E+00 0.000000000E+00 3.645387694E+02
3.410910000E-03 1.974300000E+00 0.000000000E+00 3.634807134E+02
3.417040000E-03 1.974300000E+00 0.000000000E+00 3.628286470E+02
3.421260000E-03 1.974200000E+00 0.000000000E+00 3.623811111E+02
3.429650000E-03 1.974200000E+00 0.000000000E+00 3.614946132E+02
3.437990000E-03 1.974100000E+00 0.000000000E+00 3.606176865E+02
3.454520000E-03 1.974100000E+00 0.000000000E+00 3.588921182E+02
3.470800000E-03 1.974000000E+00 0.000000000E+00 3.572087127E+02
3.486820000E-03 1.973900000E+00 0.000000000E+00 3.555675372E+02
3.518370000E-03 1.973700000E+00 0.000000000E+00 3.523790846E+02
3.548930000E-03 1.973600000E+00 0.000000000E+00 3.493447321E+02
3.578540000E-03 1.973400000E+00 0.000000000E+00 3.464541405E+02
3.607220000E-03 1.973300000E+00 0.000000000E+00 3.436995803E+02
3.662780000E-03 1.973000000E+00 0.000000000E+00 3.384860680E+02
3.714880000E-03 1.972700000E+00 0.000000000E+00 3.337389095E+02
3.763710000E-03 1.972400000E+00 0.000000000E+00 3.294090140E+02
3.855290000E-03 1.971900000E+00 0.000000000E+00 3.215841091E+02
3.935410000E-03 1.971500000E+00 0.000000000E+00 3.150370609E+02
4.075630000E-03 1.969900000E+00 0.000000000E+00 3.041983693E+02
4.180800000E-03 1.968100000E+00 0.000000000E+00 2.965461156E+02
4.338540000E-03 1.965500000E+00 0.000000000E+00 2.857643355E+02
4.496290000E-03 1.962800000E+00 0.000000000E+00 2.757384421E+02
4.507360000E-03 1.962600000E+00 0.000000000E+00 2.750612332E+02
4.518420000E-03 1.962400000E+00 0.000000000E+00 2.743879498E+02
4.529490000E-03 1.962300000E+00 0.000000000E+00 2.737173501E+02
4.540560000E-03 1.962100000E+00 0.000000000E+00 2.730500203E+02
4.551620000E-03 1.961900000E+00 0.000000000E+00 2.723865349E+02
4.562690000E-03 1.961700000E+00 0.000000000E+00 2.717256706E+02
4.573760000E-03 1.961500000E+00 0.000000000E+00 2.710680053E+02
4.584830000E-03 1.961300000E+00 0.000000000E+00 2.704135159E+02
4.595890000E-03 1.961100000E+00 0.000000000E+00 2.697627663E+02
4.606960000E-03 1.960900000E+00 0.000000000E+00 2.691145571E+02
4.618030000E-03 1.960800000E+00 0.000000000E+00 2.684694556E+02
4.629090000E-03 1.960600000E+00 0.000000000E+00 2.678280180E+02
4.640160000E-03 1.960400000E+00 0.000000000E+00 2.671890624E+02
4.662300000E-03 1.960000000E+00 0.000000000E+00 2.659202540E+02
4.673360000E-03 1.959800000E+00 0.000000000E+00 2.652909256E+02
4.684430000E-03 1.959600000E+00 0.000000000E+00 2.646640039E+02
4.695500000E-03 1.959500000E+00 0.000000000E+00 2.640400383E+02
4.706560000E-03 1.959300000E+00 0.000000000E+00 2.634195676E+02
4.717630000E-03 1.959100000E+00 0.000000000E+00 2.628014490E+02
4.963970000E-03 1.954900000E+00 0.000000000E+00 2.497597689E+02
5.087140000E-03 1.952900000E+00 0.000000000E+00 2.437125772E+02
5.148720000E-03 1.951800000E+00 0.000000000E+00 2.407977128E+02
5.179510000E-03 1.951300000E+00 0.000000000E+00 2.393662721E+02
5.194910000E-03 1.951000000E+00 0.000000000E+00 2.386566851E+02
5.210300000E-03 1.950800000E+00 0.000000000E+00 2.379517494E+02
5.211980000E-03 1.950800000E+00 0.000000000E+00 2.378750494E+02
5.235950000E-03 1.950400000E+00 0.000000000E+00 2.367860656E+02
5.237640000E-03 1.950300000E+00 0.000000000E+00 2.367096631E+02
5.250470000E-03 1.950100000E+00 0.000000000E+00 2.361312416E+02
5.263300000E-03 1.949900000E+00 0.000000000E+00 2.355556400E+02
5.269710000E-03 1.949800000E+00 0.000000000E+00 2.352691135E+02
5.276130000E-03 1.949700000E+00 0.000000000E+00 2.349828378E+02
5.280720000E-03 1.949600000E+00 0.000000000E+00 2.347785908E+02
5.288770000E-03 1.949500000E+00 0.000000000E+00 2.344212359E+02
5.294800000E-03 1.949400000E+00 0.000000000E+00 2.341542646E+02
5.303850000E-03 1.949200000E+00 0.000000000E+00 2.337547253E+02
5.308380000E-03 1.949100000E+00 0.000000000E+00 2.335552466E+02
5.312900000E-03 1.949100000E+00 0.000000000E+00 2.333565473E+02
5.320170000E-03 1.948900000E+00 0.000000000E+00 2.330376661E+02
5.327440000E-03 1.948800000E+00 0.000000000E+00 2.327196552E+02
5.340270000E-03 1.948600000E+00 0.000000000E+00 2.321605462E+02
5.353100000E-03 1.948400000E+00 0.000000000E+00 2.316041172E+02
5.365930000E-03 1.948200000E+00 0.000000000E+00 2.310503491E+02
5.375650000E-03 1.948000000E+00 0.000000000E+00 2.306325747E+02
5.394900000E-03 1.947700000E+00 0.000000000E+00 2.298096350E+02
5.404410000E-03 1.947500000E+00 0.000000000E+00 2.294052450E+02
5.417240000E-03 1.947300000E+00 0.000000000E+00 2.288619297E+02
5.430070000E-03 1.947100000E+00 0.000000000E+00 2.283211819E+02
5.441150000E-03 1.946900000E+00 0.000000000E+00 2.278562436E+02
5.442900000E-03 1.946900000E+00 0.000000000E+00 2.277829833E+02
5.462630000E-03 1.946500000E+00 0.000000000E+00 2.269602737E+02
5.466800000E-03 1.946500000E+00 0.000000000E+00 2.267871515E+02
5.468560000E-03 1.946400000E+00 0.000000000E+00 2.267141624E+02
5.488360000E-03 1.946100000E+00 0.000000000E+00 2.258962604E+02
5.488380000E-03 1.946100000E+00 0.000000000E+00 2.258954373E+02
5.537030000E-03 1.945300000E+00 0.000000000E+00 2.239106525E+02
5.622170000E-03 1.943900000E+00 0.000000000E+00 2.205198349E+02
5.877580000E-03 1.939500000E+00 0.000000000E+00 2.109371544E+02
5.878260000E-03 1.939500000E+00 0.000000000E+00 2.109127531E+02
5.907200000E-03 1.939000000E+00 0.000000000E+00 2.098794691E+02
5.921670000E-03 1.938800000E+00 0.000000000E+00 2.093666145E+02
5.936140000E-03 1.938600000E+00 0.000000000E+00 2.088562601E+02
5.950610000E-03 1.938300000E+00 0.000000000E+00 2.083483878E+02
5.971960000E-03 1.938000000E+00 0.000000000E+00 2.076035338E+02
5.993320000E-03 1.937600000E+00 0.000000000E+00 2.068636415E+02
6.008480000E-03 1.937300000E+00 0.000000000E+00 2.063417037E+02
6.022950000E-03 1.937100000E+00 0.000000000E+00 2.058459725E+02
6.037420000E-03 1.936900000E+00 0.000000000E+00 2.053526175E+02
6.051890000E-03 1.936600000E+00 0.000000000E+00 2.048616217E+02
6.070560000E-03 1.936300000E+00 0.000000000E+00 2.042315701E+02
6.095290000E-03 1.935900000E+00 0.000000000E+00 2.034029554E+02
6.109760000E-03 1.935600000E+00 0.000000000E+00 2.029212277E+02
6.124230000E-03 1.935400000E+00 0.000000000E+00 2.024417764E+02
6.138700000E-03 1.935200000E+00 0.000000000E+00 2.019645853E+02
6.157430000E-03 1.934800000E+00 0.000000000E+00 2.013502387E+02
6.166920000E-03 1.934700000E+00 0.000000000E+00 2.010403897E+02
6.167640000E-03 1.934700000E+00 0.000000000E+00 2.010169206E+02
6.171900000E-03 1.934600000E+00 0.000000000E+00 2.008781737E+02
6.171910000E-03 1.934600000E+00 0.000000000E+00 2.008778482E+02
6.180950000E-03 1.934400000E+00 0.000000000E+00 2.005840526E+02
6.183240000E-03 1.934400000E+00 0.000000000E+00 2.005097651E+02
6.183590000E-03 1.934400000E+00 0.000000000E+00 2.004984160E+02
6.214030000E-03 1.933900000E+00 0.000000000E+00 1.995162560E+02
6.229250000E-03 1.933600000E+00 0.000000000E+00 1.990287755E+02
6.244470000E-03 1.933400000E+00 0.000000000E+00 1.985436714E+02
6.259690000E-03 1.933100000E+00 0.000000000E+00 1.980609263E+02
6.274910000E-03 1.932900000E+00 0.000000000E+00 1.975805231E+02
6.290130000E-03 1.932600000E+00 0.000000000E+00 1.971024446E+02
6.305350000E-03 1.932300000E+00 0.000000000E+00 1.966266742E+02
6.320570000E-03 1.932100000E+00 0.000000000E+00 1.961531950E+02
6.335790000E-03 1.931800000E+00 0.000000000E+00 1.956819907E+02
6.351010000E-03 1.931600000E+00 0.000000000E+00 1.952130449E+02
6.366230000E-03 1.931300000E+00 0.000000000E+00 1.947463412E+02
6.396670000E-03 1.930800000E+00 0.000000000E+00 1.938195968E+02
6.411890000E-03 1.930500000E+00 0.000000000E+00 1.933595243E+02
6.427110000E-03 1.930300000E+00 0.000000000E+00 1.929016307E+02
6.442350000E-03 1.930000000E+00 0.000000000E+00 1.924453033E+02
6.457980000E-03 1.929800000E+00 0.000000000E+00 1.919795354E+02
6.473610000E-03 1.929500000E+00 0.000000000E+00 1.915160166E+02
6.489230000E-03 1.929200000E+00 0.000000000E+00 1.910550250E+02
6.504860000E-03 1.929000000E+00 0.000000000E+00 1.905959544E+02
6.520490000E-03 1.928700000E+00 0.000000000E+00 1.901390846E+02
6.536110000E-03 1.928500000E+00 0.000000000E+00 1.896846901E+02
6.588280000E-03 1.927600000E+00 0.000000000E+00 1.881826516E+02
6.756990000E-03 1.912800000E+00 6.830600000E-04 1.834840661E+02
6.860530000E-03 1.891300000E+00 2.027630000E-02 1.807149010E+02
6.914350000E-03 1.893900000E+00 4.291670000E-02 1.793082502E+02
7.026550000E-03 1.926300000E+00 5.847420000E-02 1.764450548E+02
7.297680000E-03 1.953100000E+00 4.221210000E-02 1.698896088E+02
7.527380000E-03 1.958500000E+00 3.093780000E-02 1.647053822E+02
7.734920000E-03 1.958900000E+00 2.282290000E-02 1.602860792E+02
7.926450000E-03 1.957300000E+00 1.680880000E-02 1.564130222E+02
8.094310000E-03 1.954200000E+00 1.252750000E-02 1.531693251E+02
8.256160000E-03 1.950100000E+00 9.163480000E-03 1.501666634E+02
8.414960000E-03 1.945800000E+00 6.501220000E-03 1.473328453E+02
8.541740000E-03 1.942100000E+00 4.776560000E-03 1.451460709E+02
8.657470000E-03 1.938800000E+00 3.480350000E-03 1.432058095E+02
8.759360000E-03 1.935700000E+00 2.539290000E-03 1.415400212E+02
8.834990000E-03 1.933500000E+00 1.952830000E-03 1.403283988E+02
8.926240000E-03 1.930800000E+00 1.363370000E-03 1.388938680E+02
9.002850000E-03 1.928500000E+00 9.619360000E-04 1.377119468E+02
9.065990000E-03 1.926600000E+00 6.911370000E-04 1.367528532E+02
9.119000000E-03 1.925000000E+00 5.036100000E-04 1.359578901E+02
9.162500000E-03 1.923700000E+00 3.756430000E-04 1.353124147E+02
9.207500000E-03 1.922400000E+00 2.669370000E-04 1.346510996E+02
9.245000000E-03 1.921300000E+00 1.941020000E-04 1.341049216E+02
9.275000000E-03 1.920400000E+00 1.471020000E-04 1.336711590E+02
9.296500000E-03 1.919700000E+00 1.194280000E-04 1.333620180E+02
9.323750000E-03 1.918900000E+00 9.140710000E-05 1.329722483E+02
9.345400000E-03 1.918300000E+00 7.465290000E-05 1.326641984E+02
9.366250000E-03 1.917700000E+00 6.304720000E-05 1.323688776E+02
9.387500000E-03 1.917100000E+00 5.570450000E-05 1.320692410E+02
9.405000000E-03 1.916600000E+00 5.300300000E-05 1.318234981E+02
9.423750000E-03 1.916000000E+00 5.340800000E-05 1.315612150E+02
9.445000000E-03 1.915400000E+00 5.792730000E-05 1.312652197E+02
9.465000000E-03 1.914800000E+00 6.605510000E-05 1.309878500E+02
9.487190000E-03 1.914200000E+00 7.939100000E-05 1.306814768E+02
9.515000000E-03 1.913400000E+00 1.024010000E-04 1.302995271E+02
9.544000000E-03 1.912600000E+00 1.336820000E-04 1.299036044E+02
9.577000000E-03 1.911600000E+00 1.781060000E-04 1.294559883E+02
9.611620000E-03 1.910600000E+00 2.345460000E-04 1.289897020E+02
9.651750000E-03 1.909500000E+00 3.121660000E-04 1.284533893E+02
9.701870000E-03 1.908100000E+00 4.269010000E-04 1.277897972E+02
9.766770000E-03 1.906200000E+00 6.035160000E-04 1.269406365E+02
9.844990000E-03 1.904100000E+00 8.561510000E-04 1.259320731E+02
9.933110000E-03 1.901700000E+00 1.189550000E-03 1.248148868E+02
1.005810000E-02 1.898300000E+00 1.743730000E-03 1.232638371E+02
1.022430000E-02 1.893900000E+00 2.612590000E-03 1.212601352E+02
1.047000000E-02 1.887600000E+00 4.131330000E-03 1.184145177E+02
1.084610000E-02 1.878500000E+00 6.881710000E-03 1.143083689E+02
1.110840000E-02 1.872500000E+00 9.026340000E-03 1.116092327E+02
1.207000000E-02 1.852400000E+00 1.775900000E-02 1.027174814E+02
1.405000000E-02 1.819000000E+00 3.624830000E-02 8.824199288E+01
1.600000000E-02 1.792200000E+00 5.202900000E-02 7.748750000E+01
1.840770000E-02 1.740300000E+00 6.745340000E-02 6.735224933E+01
2.089300000E-02 1.681900000E+00 7.934480000E-02 5.934044895E+01
2.500000000E-02 1.566000000E+00 9.261690000E-02 4.959200000E+01
2.818380000E-02 1.438600000E+00 9.948020000E-02 4.398980975E+01
3.200000000E-02 1.271300000E+00 1.038670000E-01 3.874375000E+01
3.715520000E-02 9.621000000E-01 1.092440000E-01 3.336814228E+01
4.132910000E-02 6.249000000E-01 1.111750000E-01 2.999823369E+01
4.439680000E-02 3.070000000E-01 1.118880000E-01 2.792543607E+01
4.466840000E-02 2.734000000E-01 1.119510000E-01 2.775563933E+01
4.679520000E-02 -1.700000000E-03 1.120010000E-01 2.649417034E+01
4.699860000E-02 -3.410000000E-02 1.120060000E-01 2.637950918E+01
4.800000000E-02 -2.083000000E-01 1.120290000E-01 2.582916667E+01
4.963150000E-02 -4.958000000E-01 1.119850000E-01 2.498010336E+01
5.064330000E-02 -6.862000000E-01 1.118570000E-01 2.448102711E+01
5.173170000E-02 -9.558000000E-01 1.117190000E-01 2.396596284E+01
5.219160000E-02 -1.069700000E+00 1.116600000E-01 2.375478046E+01
5.255870000E-02 -1.189700000E+00 1.116140000E-01 2.358886350E+01
5.265920000E-02 -1.225200000E+00 1.116010000E-01 2.354384419E+01
5.291840000E-02 -1.316700000E+00 1.115560000E-01 2.342852392E+01
5.297130000E-02 -1.335400000E+00 1.115440000E-01 2.340512693E+01
5.304800000E-02 -1.362500000E+00 1.115270000E-01 2.337128638E+01
5.318550000E-02 -1.411000000E+00 1.114960000E-01 2.331086480E+01
5.331200000E-02 -1.455700000E+00 1.114680000E-01 2.325555222E+01
5.339380000E-02 -1.484600000E+00 1.114490000E-01 2.321992441E+01
5.364170000E-02 -1.572100000E+00 1.113930000E-01 2.311261574E+01
5.383800000E-02 -1.641500000E+00 1.113490000E-01 2.302834429E+01
5.399920000E-02 -1.698900000E+00 1.113130000E-01 2.295959940E+01
5.417170000E-02 -1.772700000E+00 1.112770000E-01 2.288648870E+01
5.445730000E-02 -1.909400000E+00 1.112680000E-01 2.276646106E+01
5.478870000E-02 -2.097400000E+00 1.120760000E-01 2.262875374E+01
5.535670000E-02 -2.533900000E+00 1.444150000E-01 2.239656627E+01
5.650640000E-02 -3.522300000E+00 1.138640000E+00 2.194087749E+01
5.796380000E-02 -3.265500000E+00 2.165200000E+00 2.138921189E+01
5.956620000E-02 -3.249300000E+00 2.784030000E+00 2.081381723E+01
6.165950000E-02 -3.208200000E+00 3.608190000E+00 2.010720165E+01
6.457320000E-02 -2.955600000E+00 4.709490000E+00 1.919991575E+01
6.690000000E-02 -2.607800000E+00 5.477450000E+00 1.853213752E+01
7.161430000E-02 -1.693000000E+00 6.663490000E+00 1.731218486E+01
7.501300000E-02 -9.963000000E-01 7.249970000E+00 1.652780185E+01
7.852360000E-02 -3.126000000E-01 7.699550000E+00 1.578888385E+01
7.943050000E-02 -1.468000000E-01 7.787380000E+00 1.560861382E+01
8.082500000E-02 1.035000000E-01 7.921940000E+00 1.533931333E+01
8.163930000E-02 2.405000000E-01 7.985430000E+00 1.518631345E+01
8.208920000E-02 3.161000000E-01 8.020510000E+00 1.510308299E+01
8.274370000E-02 4.227000000E-01 8.071550000E+00 1.498361809E+01
8.317640000E-02 4.925000000E-01 8.105290000E+00 1.490567036E+01
8.329590000E-02 5.102000000E-01 8.112360000E+00 1.488428602E+01
8.357200000E-02 5.511000000E-01 8.128680000E+00 1.483511224E+01
8.374840000E-02 5.772000000E-01 8.139110000E+00 1.480386491E+01
8.384810000E-02 5.915000000E-01 8.145010000E+00 1.478626230E+01
8.385390000E-02 5.923000000E-01 8.145350000E+00 1.478523957E+01
8.406030000E-02 6.219000000E-01 8.157560000E+00 1.474893618E+01
8.428170000E-02 6.536000000E-01 8.170640000E+00 1.471019213E+01
8.447310000E-02 6.797000000E-01 8.181960000E+00 1.467686163E+01
8.467950000E-02 7.078000000E-01 8.194170000E+00 1.464108787E+01
8.488590000E-02 7.360000000E-01 8.206370000E+00 1.460548807E+01
