# Data retrieved from https://www-nds.iaea.org/epdl97/za1to100.htm 03/01/2021
# Element, Mo  (Z = 42) 
# Atomic weight, g mol-1 = 95.94 
# Nominal density, g cm-3 =  1.02200E+1 
# Relativistic correction estimate f_rel(5CL)*,  e atom-1 =  0 
# Nuclear Thomson correction f_NT*, e atom-1 =  0 
#    E [keV]      f1 [e atom-1]      f2 [e atom-1]    Wavelength [nm] 
1.000000000E-03 4.782000000E+00 0.000000000E+00 1.239800000E+03
1.001610000E-03 4.781900000E+00 0.000000000E+00 1.237807131E+03
1.006540000E-03 4.781600000E+00 0.000000000E+00 1.231744392E+03
1.009000000E-03 4.781400000E+00 0.000000000E+00 1.228741328E+03
1.011470000E-03 4.781200000E+00 0.000000000E+00 1.225740754E+03
1.013930000E-03 4.781100000E+00 0.000000000E+00 1.222766858E+03
1.019220000E-03 4.780700000E+00 0.000000000E+00 1.216420400E+03
1.021620000E-03 4.780600000E+00 0.000000000E+00 1.213562773E+03
1.024020000E-03 4.780400000E+00 0.000000000E+00 1.210718541E+03
1.026260000E-03 4.780300000E+00 0.000000000E+00 1.208075926E+03
1.028730000E-03 4.780100000E+00 0.000000000E+00 1.205175313E+03
1.031190000E-03 4.780000000E+00 0.000000000E+00 1.202300255E+03
1.033660000E-03 4.779800000E+00 0.000000000E+00 1.199427278E+03
1.038590000E-03 4.779500000E+00 0.000000000E+00 1.193733812E+03
1.041050000E-03 4.779300000E+00 0.000000000E+00 1.190913021E+03
1.043520000E-03 4.779200000E+00 0.000000000E+00 1.188094143E+03
1.045980000E-03 4.779000000E+00 0.000000000E+00 1.185299910E+03
1.048450000E-03 4.778800000E+00 0.000000000E+00 1.182507511E+03
1.050910000E-03 4.778700000E+00 0.000000000E+00 1.179739464E+03
1.182280000E-03 4.770200000E+00 0.000000000E+00 1.048651758E+03
1.330060000E-03 4.760600000E+00 0.000000000E+00 9.321383998E+02
1.496320000E-03 4.749900000E+00 0.000000000E+00 8.285660821E+02
1.651260000E-03 4.739900000E+00 0.000000000E+00 7.508205855E+02
1.786830000E-03 4.731100000E+00 0.000000000E+00 6.938544797E+02
1.905450000E-03 4.723400000E+00 0.000000000E+00 6.506599491E+02
2.113040000E-03 4.704100000E+00 0.000000000E+00 5.867375913E+02
2.268740000E-03 4.686000000E+00 0.000000000E+00 5.464707282E+02
2.385510000E-03 4.672500000E+00 0.000000000E+00 5.197211498E+02
2.560670000E-03 4.652100000E+00 0.000000000E+00 4.841701586E+02
2.648240000E-03 4.641900000E+00 0.000000000E+00 4.681599855E+02
2.735820000E-03 4.631700000E+00 0.000000000E+00 4.531730889E+02
2.742560000E-03 4.631000000E+00 0.000000000E+00 4.520593898E+02
2.749290000E-03 4.630200000E+00 0.000000000E+00 4.509527914E+02
2.756020000E-03 4.629400000E+00 0.000000000E+00 4.498515976E+02
2.762760000E-03 4.628600000E+00 0.000000000E+00 4.487541444E+02
2.769490000E-03 4.627800000E+00 0.000000000E+00 4.476636493E+02
2.776220000E-03 4.627000000E+00 0.000000000E+00 4.465784412E+02
2.782960000E-03 4.626300000E+00 0.000000000E+00 4.454968810E+02
2.789690000E-03 4.625500000E+00 0.000000000E+00 4.444221401E+02
2.796430000E-03 4.624700000E+00 0.000000000E+00 4.433509868E+02
2.803160000E-03 4.623900000E+00 0.000000000E+00 4.422865623E+02
2.809890000E-03 4.623100000E+00 0.000000000E+00 4.412272367E+02
2.816630000E-03 4.622300000E+00 0.000000000E+00 4.401714105E+02
2.823360000E-03 4.621600000E+00 0.000000000E+00 4.391221807E+02
2.830110000E-03 4.620800000E+00 0.000000000E+00 4.380748451E+02
2.837020000E-03 4.620000000E+00 0.000000000E+00 4.370078463E+02
2.843940000E-03 4.619200000E+00 0.000000000E+00 4.359444995E+02
2.850850000E-03 4.618400000E+00 0.000000000E+00 4.348878405E+02
2.864680000E-03 4.616800000E+00 0.000000000E+00 4.327883045E+02
2.871600000E-03 4.616000000E+00 0.000000000E+00 4.317453684E+02
2.878510000E-03 4.615200000E+00 0.000000000E+00 4.307089432E+02
2.885420000E-03 4.614300000E+00 0.000000000E+00 4.296774820E+02
2.892340000E-03 4.613500000E+00 0.000000000E+00 4.286494672E+02
2.899250000E-03 4.612700000E+00 0.000000000E+00 4.276278348E+02
2.913080000E-03 4.611100000E+00 0.000000000E+00 4.255976492E+02
2.920000000E-03 4.610300000E+00 0.000000000E+00 4.245890411E+02
2.926910000E-03 4.609500000E+00 0.000000000E+00 4.235866494E+02
2.933830000E-03 4.608700000E+00 0.000000000E+00 4.225875392E+02
2.940740000E-03 4.607900000E+00 0.000000000E+00 4.215945646E+02
2.947660000E-03 4.607100000E+00 0.000000000E+00 4.206048187E+02
3.016310000E-03 4.597800000E+00 0.000000000E+00 4.110320226E+02
3.076380000E-03 4.585900000E+00 0.000000000E+00 4.030061306E+02
3.128940000E-03 4.575400000E+00 0.000000000E+00 3.962364251E+02
3.174930000E-03 4.566300000E+00 0.000000000E+00 3.904967984E+02
3.215170000E-03 4.558300000E+00 0.000000000E+00 3.856094701E+02
3.285590000E-03 4.544300000E+00 0.000000000E+00 3.773447083E+02
3.338410000E-03 4.533800000E+00 0.000000000E+00 3.713743968E+02
3.378020000E-03 4.525900000E+00 0.000000000E+00 3.670197335E+02
3.407730000E-03 4.520000000E+00 0.000000000E+00 3.638199036E+02
3.430010000E-03 4.515600000E+00 0.000000000E+00 3.614566721E+02
3.446720000E-03 4.512300000E+00 0.000000000E+00 3.597042986E+02
3.471790000E-03 4.507300000E+00 0.000000000E+00 3.571068527E+02
3.484330000E-03 4.504800000E+00 0.000000000E+00 3.558216357E+02
3.490590000E-03 4.503600000E+00 0.000000000E+00 3.551835077E+02
3.496860000E-03 4.502300000E+00 0.000000000E+00 3.545466504E+02
3.505470000E-03 4.500600000E+00 0.000000000E+00 3.536758266E+02
3.514070000E-03 4.498900000E+00 0.000000000E+00 3.528102741E+02
3.522680000E-03 4.497200000E+00 0.000000000E+00 3.519479487E+02
3.531290000E-03 4.495500000E+00 0.000000000E+00 3.510898284E+02
3.539890000E-03 4.493800000E+00 0.000000000E+00 3.502368718E+02
3.548500000E-03 4.492000000E+00 0.000000000E+00 3.493870650E+02
3.557110000E-03 4.490300000E+00 0.000000000E+00 3.485413721E+02
3.565720000E-03 4.488600000E+00 0.000000000E+00 3.476997633E+02
3.570400000E-03 4.487700000E+00 0.000000000E+00 3.472440063E+02
3.574320000E-03 4.486900000E+00 0.000000000E+00 3.468631796E+02
3.582930000E-03 4.485200000E+00 0.000000000E+00 3.460296461E+02
3.587980000E-03 4.484200000E+00 0.000000000E+00 3.455426173E+02
3.591540000E-03 4.483500000E+00 0.000000000E+00 3.452001091E+02
3.596760000E-03 4.482500000E+00 0.000000000E+00 3.446991181E+02
3.605550000E-03 4.480700000E+00 0.000000000E+00 3.438587733E+02
3.617360000E-03 4.478400000E+00 0.000000000E+00 3.427361391E+02
3.621660000E-03 4.477500000E+00 0.000000000E+00 3.423292082E+02
3.625970000E-03 4.476700000E+00 0.000000000E+00 3.419222994E+02
3.629650000E-03 4.475900000E+00 0.000000000E+00 3.415756340E+02
3.635180000E-03 4.474800000E+00 0.000000000E+00 3.410560137E+02
3.637940000E-03 4.474300000E+00 0.000000000E+00 3.407972644E+02
3.640700000E-03 4.473700000E+00 0.000000000E+00 3.405389074E+02
3.645100000E-03 4.472900000E+00 0.000000000E+00 3.401278429E+02
3.647290000E-03 4.472400000E+00 0.000000000E+00 3.399236145E+02
3.648390000E-03 4.472200000E+00 0.000000000E+00 3.398211266E+02
3.648940000E-03 4.472100000E+00 0.000000000E+00 3.397699058E+02
3.649220000E-03 4.472000000E+00 0.000000000E+00 3.397438357E+02
3.649490000E-03 4.472000000E+00 0.000000000E+00 3.397187004E+02
3.649630000E-03 4.472000000E+00 0.000000000E+00 3.397056688E+02
3.649900000E-03 4.471900000E+00 0.000000000E+00 3.396805392E+02
3.650160000E-03 4.471900000E+00 0.000000000E+00 3.396563438E+02
3.650290000E-03 4.471800000E+00 0.000000000E+00 3.396442474E+02
3.650540000E-03 4.471800000E+00 0.000000000E+00 3.396209876E+02
3.654410000E-03 4.471000000E+00 0.000000000E+00 3.392613308E+02
3.657310000E-03 4.470400000E+00 0.000000000E+00 3.389923195E+02
3.659380000E-03 4.470000000E+00 0.000000000E+00 3.388005618E+02
3.667070000E-03 4.468500000E+00 0.000000000E+00 3.380900828E+02
3.671460000E-03 4.467600000E+00 0.000000000E+00 3.376858253E+02
3.675860000E-03 4.466700000E+00 0.000000000E+00 3.372816157E+02
3.680250000E-03 4.465900000E+00 0.000000000E+00 3.368792881E+02
3.684640000E-03 4.465000000E+00 0.000000000E+00 3.364779191E+02
3.689040000E-03 4.464100000E+00 0.000000000E+00 3.360765945E+02
3.693430000E-03 4.463300000E+00 0.000000000E+00 3.356771348E+02
3.702220000E-03 4.461500000E+00 0.000000000E+00 3.348801530E+02
3.711010000E-03 4.459800000E+00 0.000000000E+00 3.340869467E+02
3.719800000E-03 4.458000000E+00 0.000000000E+00 3.332974891E+02
3.728580000E-03 4.456300000E+00 0.000000000E+00 3.325126456E+02
3.737420000E-03 4.454500000E+00 0.000000000E+00 3.317261640E+02
3.746160000E-03 4.452800000E+00 0.000000000E+00 3.309522284E+02
3.750990000E-03 4.451800000E+00 0.000000000E+00 3.305260744E+02
3.755820000E-03 4.450900000E+00 0.000000000E+00 3.301010166E+02
3.765020000E-03 4.449000000E+00 0.000000000E+00 3.292943995E+02
3.774210000E-03 4.447200000E+00 0.000000000E+00 3.284925852E+02
3.783410000E-03 4.445400000E+00 0.000000000E+00 3.276938000E+02
3.804440000E-03 4.441200000E+00 0.000000000E+00 3.258823900E+02
3.808380000E-03 4.440400000E+00 0.000000000E+00 3.255452450E+02
3.811010000E-03 4.439900000E+00 0.000000000E+00 3.253205843E+02
3.815680000E-03 4.439000000E+00 0.000000000E+00 3.249224254E+02
3.825430000E-03 4.437000000E+00 0.000000000E+00 3.240942848E+02
3.827130000E-03 4.436700000E+00 0.000000000E+00 3.239503231E+02
3.829730000E-03 4.436200000E+00 0.000000000E+00 3.237303935E+02
3.830580000E-03 4.436000000E+00 0.000000000E+00 3.236585582E+02
3.832060000E-03 4.435700000E+00 0.000000000E+00 3.235335564E+02
3.834280000E-03 4.435300000E+00 0.000000000E+00 3.233462345E+02
3.835390000E-03 4.435000000E+00 0.000000000E+00 3.232526549E+02
3.836500000E-03 4.434800000E+00 0.000000000E+00 3.231591294E+02
3.839110000E-03 4.434300000E+00 0.000000000E+00 3.229394313E+02
3.845880000E-03 4.433000000E+00 0.000000000E+00 3.223709528E+02
3.848220000E-03 4.432500000E+00 0.000000000E+00 3.221749276E+02
3.855250000E-03 4.431100000E+00 0.000000000E+00 3.215874457E+02
3.858250000E-03 4.430500000E+00 0.000000000E+00 3.213373939E+02
3.862750000E-03 4.429600000E+00 0.000000000E+00 3.209630445E+02
3.867250000E-03 4.428700000E+00 0.000000000E+00 3.205895662E+02
3.871280000E-03 4.427900000E+00 0.000000000E+00 3.202558327E+02
3.874300000E-03 4.427300000E+00 0.000000000E+00 3.200061947E+02
3.876570000E-03 4.426900000E+00 0.000000000E+00 3.198188089E+02
3.878270000E-03 4.426500000E+00 0.000000000E+00 3.196786196E+02
3.880820000E-03 4.426000000E+00 0.000000000E+00 3.194685659E+02
3.882100000E-03 4.425800000E+00 0.000000000E+00 3.193632312E+02
3.882730000E-03 4.425600000E+00 0.000000000E+00 3.193114123E+02
3.883370000E-03 4.425500000E+00 0.000000000E+00 3.192587881E+02
3.883700000E-03 4.425500000E+00 0.000000000E+00 3.192316605E+02
3.884330000E-03 4.425300000E+00 0.000000000E+00 3.191798843E+02
3.885510000E-03 4.425100000E+00 0.000000000E+00 3.190829518E+02
3.887590000E-03 4.424700000E+00 0.000000000E+00 3.189122310E+02
3.889140000E-03 4.424400000E+00 0.000000000E+00 3.187851299E+02
3.891470000E-03 4.423900000E+00 0.000000000E+00 3.185942587E+02
3.892640000E-03 4.423700000E+00 0.000000000E+00 3.184984997E+02
3.896100000E-03 4.423000000E+00 0.000000000E+00 3.182156515E+02
3.899550000E-03 4.422300000E+00 0.000000000E+00 3.179341206E+02
3.903000000E-03 4.421600000E+00 0.000000000E+00 3.176530874E+02
3.912200000E-03 4.419800000E+00 0.000000000E+00 3.169060886E+02
3.917870000E-03 4.418700000E+00 0.000000000E+00 3.164474574E+02
3.923530000E-03 4.417500000E+00 0.000000000E+00 3.159909571E+02
3.929900000E-03 4.416300000E+00 0.000000000E+00 3.154787654E+02
3.939440000E-03 4.414400000E+00 0.000000000E+00 3.147147818E+02
3.948990000E-03 4.412500000E+00 0.000000000E+00 3.139536945E+02
3.958360000E-03 4.410600000E+00 0.000000000E+00 3.132105215E+02
3.961050000E-03 4.410100000E+00 0.000000000E+00 3.129978162E+02
3.967740000E-03 4.408800000E+00 0.000000000E+00 3.124700711E+02
3.970430000E-03 4.408200000E+00 0.000000000E+00 3.122583700E+02
3.977110000E-03 4.406900000E+00 0.000000000E+00 3.117338972E+02
3.979810000E-03 4.406400000E+00 0.000000000E+00 3.115224094E+02
3.989190000E-03 4.404500000E+00 0.000000000E+00 3.107899097E+02
3.995860000E-03 4.403200000E+00 0.000000000E+00 3.102711306E+02
3.998570000E-03 4.402600000E+00 0.000000000E+00 3.100608468E+02
4.011790000E-03 4.399900000E+00 0.000000000E+00 3.090391072E+02
4.024590000E-03 4.397200000E+00 0.000000000E+00 3.080562244E+02
4.049390000E-03 4.392100000E+00 0.000000000E+00 3.061695712E+02
4.072640000E-03 4.387300000E+00 0.000000000E+00 3.044217019E+02
4.116240000E-03 4.378300000E+00 0.000000000E+00 3.011972091E+02
4.154380000E-03 4.370400000E+00 0.000000000E+00 2.984320163E+02
4.221140000E-03 4.356500000E+00 0.000000000E+00 2.937121252E+02
4.421410000E-03 4.315000000E+00 0.000000000E+00 2.804082860E+02
4.424310000E-03 4.314400000E+00 0.000000000E+00 2.802244870E+02
4.446090000E-03 4.309900000E+00 0.000000000E+00 2.788517551E+02
4.456980000E-03 4.307700000E+00 0.000000000E+00 2.781704203E+02
4.467870000E-03 4.305400000E+00 0.000000000E+00 2.774924069E+02
4.478760000E-03 4.303200000E+00 0.000000000E+00 2.768176906E+02
4.488180000E-03 4.301200000E+00 0.000000000E+00 2.762366928E+02
4.500000000E-03 4.298800000E+00 0.000000000E+00 2.755111111E+02
4.511430000E-03 4.294700000E+00 0.000000000E+00 2.748130859E+02
4.522320000E-03 4.290900000E+00 0.000000000E+00 2.741513206E+02
4.533210000E-03 4.287000000E+00 0.000000000E+00 2.734927347E+02
4.544100000E-03 4.283200000E+00 0.000000000E+00 2.728373055E+02
4.554990000E-03 4.279300000E+00 0.000000000E+00 2.721850103E+02
4.565880000E-03 4.275500000E+00 0.000000000E+00 2.715358266E+02
4.576770000E-03 4.271600000E+00 0.000000000E+00 2.708897323E+02
4.587660000E-03 4.267800000E+00 0.000000000E+00 2.702467053E+02
4.598550000E-03 4.263900000E+00 0.000000000E+00 2.696067239E+02
4.609440000E-03 4.260100000E+00 0.000000000E+00 2.689697664E+02
4.615990000E-03 4.257700000E+00 0.000000000E+00 2.685881035E+02
4.620330000E-03 4.256200000E+00 0.000000000E+00 2.683358115E+02
4.628180000E-03 4.253400000E+00 0.000000000E+00 2.678806788E+02
4.642110000E-03 4.248500000E+00 0.000000000E+00 2.670768250E+02
4.659710000E-03 4.242300000E+00 0.000000000E+00 2.660680600E+02
4.671730000E-03 4.238000000E+00 0.000000000E+00 2.653834875E+02
4.682710000E-03 4.234200000E+00 0.000000000E+00 2.647612173E+02
4.693140000E-03 4.230500000E+00 0.000000000E+00 2.641728139E+02
4.704380000E-03 4.226500000E+00 0.000000000E+00 2.635416357E+02
4.715630000E-03 4.222500000E+00 0.000000000E+00 2.629129088E+02
4.738130000E-03 4.214600000E+00 0.000000000E+00 2.616644119E+02
4.749370000E-03 4.210600000E+00 0.000000000E+00 2.610451491E+02
4.760620000E-03 4.206600000E+00 0.000000000E+00 2.604282635E+02
4.771870000E-03 4.202600000E+00 0.000000000E+00 2.598142866E+02
4.783110000E-03 4.198700000E+00 0.000000000E+00 2.592037398E+02
4.794360000E-03 4.194700000E+00 0.000000000E+00 2.585955164E+02
4.809980000E-03 4.189200000E+00 0.000000000E+00 2.577557495E+02
4.821820000E-03 4.185000000E+00 0.000000000E+00 2.571228291E+02
4.833660000E-03 4.180800000E+00 0.000000000E+00 2.564930094E+02
4.845500000E-03 4.176600000E+00 0.000000000E+00 2.558662677E+02
4.857340000E-03 4.172400000E+00 0.000000000E+00 2.552425813E+02
4.869170000E-03 4.168100000E+00 0.000000000E+00 2.546224511E+02
4.881010000E-03 4.163600000E+00 0.000000000E+00 2.540048064E+02
4.886930000E-03 4.161300000E+00 0.000000000E+00 2.536971064E+02
4.892850000E-03 4.159100000E+00 0.000000000E+00 2.533901509E+02
4.904690000E-03 4.154600000E+00 0.000000000E+00 2.527784631E+02
4.916530000E-03 4.150100000E+00 0.000000000E+00 2.521697213E+02
4.928370000E-03 4.145500000E+00 0.000000000E+00 2.515639045E+02
4.940210000E-03 4.141000000E+00 0.000000000E+00 2.509609915E+02
4.952050000E-03 4.136500000E+00 0.000000000E+00 2.503609616E+02
4.963890000E-03 4.132000000E+00 0.000000000E+00 2.497637941E+02
4.975730000E-03 4.127500000E+00 0.000000000E+00 2.491694686E+02
4.987570000E-03 4.122900000E+00 0.000000000E+00 2.485779648E+02
4.999400000E-03 4.118400000E+00 0.000000000E+00 2.479897588E+02
5.011240000E-03 4.113900000E+00 0.000000000E+00 2.474038362E+02
5.023080000E-03 4.109400000E+00 0.000000000E+00 2.468206758E+02
5.041090000E-03 4.102500000E+00 0.000000000E+00 2.459388743E+02
5.046760000E-03 4.100400000E+00 0.000000000E+00 2.456625637E+02
5.050470000E-03 4.098900000E+00 0.000000000E+00 2.454821036E+02
5.065910000E-03 4.093100000E+00 0.000000000E+00 2.447339175E+02
5.075330000E-03 4.089500000E+00 0.000000000E+00 2.442796823E+02
5.078310000E-03 4.088300000E+00 0.000000000E+00 2.441363367E+02
5.087760000E-03 4.084700000E+00 0.000000000E+00 2.436828781E+02
5.090720000E-03 4.083600000E+00 0.000000000E+00 2.435411887E+02
5.100190000E-03 4.080000000E+00 0.000000000E+00 2.430889830E+02
5.115540000E-03 4.074100000E+00 0.000000000E+00 2.423595554E+02
5.140350000E-03 4.064600000E+00 0.000000000E+00 2.411898023E+02
5.152760000E-03 4.059900000E+00 0.000000000E+00 2.406089164E+02
5.165170000E-03 4.055200000E+00 0.000000000E+00 2.400308218E+02
5.177580000E-03 4.050400000E+00 0.000000000E+00 2.394554985E+02
5.182450000E-03 4.048600000E+00 0.000000000E+00 2.392304798E+02
5.185350000E-03 4.047500000E+00 0.000000000E+00 2.390966859E+02
5.209300000E-03 4.038300000E+00 0.000000000E+00 2.379974277E+02
5.210880000E-03 4.037700000E+00 0.000000000E+00 2.379252641E+02
5.223110000E-03 4.033100000E+00 0.000000000E+00 2.373681581E+02
5.236400000E-03 4.028000000E+00 0.000000000E+00 2.367657169E+02
5.249760000E-03 4.022900000E+00 0.000000000E+00 2.361631770E+02
5.267430000E-03 4.016200000E+00 0.000000000E+00 2.353709494E+02
5.285100000E-03 4.009400000E+00 0.000000000E+00 2.345840192E+02
5.301200000E-03 4.003300000E+00 0.000000000E+00 2.338715762E+02
5.314060000E-03 3.998400000E+00 0.000000000E+00 2.333056081E+02
5.326910000E-03 3.993500000E+00 0.000000000E+00 2.327428096E+02
5.339950000E-03 3.988500000E+00 0.000000000E+00 2.321744586E+02
5.353060000E-03 3.983500000E+00 0.000000000E+00 2.316058479E+02
5.366170000E-03 3.978500000E+00 0.000000000E+00 2.310400155E+02
5.379280000E-03 3.973500000E+00 0.000000000E+00 2.304769412E+02
5.392390000E-03 3.968500000E+00 0.000000000E+00 2.299166047E+02
5.399690000E-03 3.965700000E+00 0.000000000E+00 2.296057737E+02
5.407000000E-03 3.962900000E+00 0.000000000E+00 2.292953579E+02
5.413400000E-03 3.960500000E+00 0.000000000E+00 2.290242731E+02
5.423000000E-03 3.956800000E+00 0.000000000E+00 2.286188457E+02
5.427800000E-03 3.955000000E+00 0.000000000E+00 2.284166697E+02
5.432600000E-03 3.953100000E+00 0.000000000E+00 2.282148511E+02
5.445410000E-03 3.948200000E+00 0.000000000E+00 2.276779894E+02
5.458210000E-03 3.943400000E+00 0.000000000E+00 2.271440637E+02
5.471060000E-03 3.938400000E+00 0.000000000E+00 2.266105654E+02
5.484170000E-03 3.933400000E+00 0.000000000E+00 2.260688491E+02
5.499600000E-03 3.927600000E+00 0.000000000E+00 2.254345771E+02
5.510400000E-03 3.922100000E+00 0.000000000E+00 2.249927410E+02
5.523510000E-03 3.915500000E+00 0.000000000E+00 2.244587228E+02
5.536620000E-03 3.908800000E+00 0.000000000E+00 2.239272336E+02
5.549870000E-03 3.902100000E+00 0.000000000E+00 2.233926200E+02
5.563260000E-03 3.895400000E+00 0.000000000E+00 2.228549448E+02
5.573610000E-03 3.890100000E+00 0.000000000E+00 2.224411109E+02
5.583960000E-03 3.884900000E+00 0.000000000E+00 2.220288111E+02
5.600180000E-03 3.876700000E+00 0.000000000E+00 2.213857412E+02
5.613670000E-03 3.869600000E+00 0.000000000E+00 2.208537374E+02
5.627160000E-03 3.861700000E+00 0.000000000E+00 2.203242844E+02
5.640640000E-03 3.853800000E+00 0.000000000E+00 2.197977534E+02
5.657030000E-03 3.844300000E+00 0.000000000E+00 2.191609378E+02
5.673420000E-03 3.834700000E+00 0.000000000E+00 2.185278016E+02
5.683830000E-03 3.828600000E+00 0.000000000E+00 2.181275654E+02
5.693270000E-03 3.823100000E+00 0.000000000E+00 2.177658885E+02
5.705110000E-03 3.816200000E+00 0.000000000E+00 2.173139519E+02
5.718590000E-03 3.808400000E+00 0.000000000E+00 2.168016941E+02
