# Data retrieved from https://www-nds.iaea.org/epdl97/za1to100.htm 03/01/2021
# Element, Nb  (Z = 41) 
# Atomic weight, g mol-1 = 92.906 
# Nominal density, g cm-3 =  8.57000E+0 
# Relativistic correction estimate f_rel(5CL)*,  e atom-1 =  0 
# Nuclear Thomson correction f_NT*, e atom-1 =  0 
#    E [keV]      f1 [e atom-1]      f2 [e atom-1]    Wavelength [nm] 
1.000000000E-03 5.293800000E+00 0.000000000E+00 1.239800000E+03
1.125000000E-03 5.284500000E+00 0.000000000E+00 1.102044444E+03
1.265630000E-03 5.274000000E+00 0.000000000E+00 9.795911917E+02
1.423830000E-03 5.262200000E+00 0.000000000E+00 8.707500193E+02
1.566490000E-03 5.251500000E+00 0.000000000E+00 7.914509509E+02
1.691310000E-03 5.242200000E+00 0.000000000E+00 7.330412520E+02
1.800530000E-03 5.234100000E+00 0.000000000E+00 6.885750307E+02
1.896100000E-03 5.226900000E+00 0.000000000E+00 6.538684669E+02
2.000000000E-03 5.219200000E+00 0.000000000E+00 6.199000000E+02
2.052890000E-03 5.211800000E+00 0.000000000E+00 6.039290951E+02
2.116920000E-03 5.203000000E+00 0.000000000E+00 5.856621885E+02
2.172940000E-03 5.195200000E+00 0.000000000E+00 5.705633842E+02
2.270970000E-03 5.181700000E+00 0.000000000E+00 5.459341163E+02
2.344500000E-03 5.171500000E+00 0.000000000E+00 5.288121135E+02
2.399650000E-03 5.163800000E+00 0.000000000E+00 5.166586794E+02
2.441010000E-03 5.158100000E+00 0.000000000E+00 5.079045149E+02
2.472030000E-03 5.153800000E+00 0.000000000E+00 5.015311303E+02
2.518550000E-03 5.147400000E+00 0.000000000E+00 4.922673761E+02
2.541820000E-03 5.144200000E+00 0.000000000E+00 4.877607384E+02
2.565080000E-03 5.141000000E+00 0.000000000E+00 4.833377516E+02
2.571400000E-03 5.140100000E+00 0.000000000E+00 4.821498017E+02
2.577710000E-03 5.139200000E+00 0.000000000E+00 4.809695427E+02
2.581550000E-03 5.138700000E+00 0.000000000E+00 4.802541109E+02
2.594260000E-03 5.136900000E+00 0.000000000E+00 4.779012127E+02
2.600610000E-03 5.136000000E+00 0.000000000E+00 4.767343046E+02
2.606970000E-03 5.135200000E+00 0.000000000E+00 4.755712571E+02
2.613320000E-03 5.134300000E+00 0.000000000E+00 4.744156858E+02
2.621910000E-03 5.133100000E+00 0.000000000E+00 4.728613873E+02
2.632380000E-03 5.131600000E+00 0.000000000E+00 4.709806335E+02
2.638740000E-03 5.130800000E+00 0.000000000E+00 4.698454565E+02
2.645090000E-03 5.129900000E+00 0.000000000E+00 4.687175106E+02
2.648340000E-03 5.129400000E+00 0.000000000E+00 4.681423080E+02
2.661380000E-03 5.127600000E+00 0.000000000E+00 4.658485447E+02
2.667900000E-03 5.126700000E+00 0.000000000E+00 4.647100716E+02
2.674420000E-03 5.125800000E+00 0.000000000E+00 4.635771494E+02
2.680940000E-03 5.124900000E+00 0.000000000E+00 4.624497378E+02
2.686150000E-03 5.124200000E+00 0.000000000E+00 4.615527800E+02
2.691360000E-03 5.123500000E+00 0.000000000E+00 4.606592949E+02
2.695920000E-03 5.122800000E+00 0.000000000E+00 4.598801151E+02
2.698210000E-03 5.122500000E+00 0.000000000E+00 4.594898099E+02
2.700490000E-03 5.122200000E+00 0.000000000E+00 4.591018667E+02
2.703750000E-03 5.121800000E+00 0.000000000E+00 4.585483125E+02
2.707010000E-03 5.121300000E+00 0.000000000E+00 4.579960916E+02
2.713530000E-03 5.120400000E+00 0.000000000E+00 4.568956304E+02
2.714340000E-03 5.120300000E+00 0.000000000E+00 4.567592859E+02
2.715770000E-03 5.120100000E+00 0.000000000E+00 4.565187774E+02
2.718980000E-03 5.119700000E+00 0.000000000E+00 4.559798160E+02
2.719650000E-03 5.119600000E+00 0.000000000E+00 4.558674829E+02
2.719850000E-03 5.119500000E+00 0.000000000E+00 4.558339614E+02
2.719970000E-03 5.119500000E+00 0.000000000E+00 4.558138509E+02
2.720010000E-03 5.119500000E+00 0.000000000E+00 4.558071478E+02
2.720050000E-03 5.119500000E+00 0.000000000E+00 4.558004448E+02
2.720100000E-03 5.119500000E+00 0.000000000E+00 4.557920665E+02
2.720300000E-03 5.119500000E+00 0.000000000E+00 4.557585560E+02
2.720690000E-03 5.119400000E+00 0.000000000E+00 4.556932249E+02
2.721430000E-03 5.119300000E+00 0.000000000E+00 4.555693147E+02
2.727690000E-03 5.118400000E+00 0.000000000E+00 4.545237912E+02
2.729650000E-03 5.118200000E+00 0.000000000E+00 4.541974246E+02
2.732590000E-03 5.117800000E+00 0.000000000E+00 4.537087525E+02
2.735530000E-03 5.117400000E+00 0.000000000E+00 4.532211308E+02
2.738180000E-03 5.117000000E+00 0.000000000E+00 4.527825052E+02
2.742150000E-03 5.116400000E+00 0.000000000E+00 4.521269807E+02
2.744140000E-03 5.116200000E+00 0.000000000E+00 4.517991065E+02
2.746120000E-03 5.115900000E+00 0.000000000E+00 4.514733515E+02
2.749380000E-03 5.115400000E+00 0.000000000E+00 4.509380297E+02
2.752640000E-03 5.115000000E+00 0.000000000E+00 4.504039758E+02
2.759160000E-03 5.114100000E+00 0.000000000E+00 4.493396541E+02
2.765680000E-03 5.113200000E+00 0.000000000E+00 4.482803506E+02
2.768280000E-03 5.112800000E+00 0.000000000E+00 4.478593206E+02
2.776060000E-03 5.111700000E+00 0.000000000E+00 4.466041800E+02
2.777390000E-03 5.111600000E+00 0.000000000E+00 4.463903161E+02
2.778380000E-03 5.111400000E+00 0.000000000E+00 4.462312571E+02
2.778720000E-03 5.111400000E+00 0.000000000E+00 4.461766569E+02
2.778980000E-03 5.111300000E+00 0.000000000E+00 4.461349128E+02
2.779460000E-03 5.111300000E+00 0.000000000E+00 4.460578674E+02
2.780320000E-03 5.111200000E+00 0.000000000E+00 4.459198941E+02
2.780960000E-03 5.111100000E+00 0.000000000E+00 4.458172717E+02
2.781800000E-03 5.111000000E+00 0.000000000E+00 4.456826515E+02
2.782880000E-03 5.110800000E+00 0.000000000E+00 4.455096878E+02
2.784580000E-03 5.110600000E+00 0.000000000E+00 4.452377019E+02
2.787140000E-03 5.110200000E+00 0.000000000E+00 4.448287492E+02
2.789700000E-03 5.109900000E+00 0.000000000E+00 4.444205470E+02
2.796510000E-03 5.108900000E+00 0.000000000E+00 4.433383038E+02
2.803330000E-03 5.108000000E+00 0.000000000E+00 4.422597411E+02
2.810150000E-03 5.107000000E+00 0.000000000E+00 4.411864135E+02
2.816960000E-03 5.106100000E+00 0.000000000E+00 4.401198455E+02
2.823780000E-03 5.105100000E+00 0.000000000E+00 4.390568670E+02
2.830590000E-03 5.104200000E+00 0.000000000E+00 4.380005582E+02
2.833320000E-03 5.103800000E+00 0.000000000E+00 4.375785298E+02
2.836040000E-03 5.103400000E+00 0.000000000E+00 4.371588553E+02
2.840140000E-03 5.102900000E+00 0.000000000E+00 4.365277768E+02
2.850010000E-03 5.101500000E+00 0.000000000E+00 4.350160175E+02
2.856990000E-03 5.100500000E+00 0.000000000E+00 4.339532165E+02
2.863970000E-03 5.099600000E+00 0.000000000E+00 4.328955960E+02
2.871490000E-03 5.098500000E+00 0.000000000E+00 4.317619076E+02
2.874900000E-03 5.098100000E+00 0.000000000E+00 4.312497826E+02
2.880010000E-03 5.097400000E+00 0.000000000E+00 4.304846164E+02
2.885120000E-03 5.096700000E+00 0.000000000E+00 4.297221606E+02
2.888530000E-03 5.096200000E+00 0.000000000E+00 4.292148602E+02
2.891940000E-03 5.095700000E+00 0.000000000E+00 4.287087561E+02
2.897140000E-03 5.095000000E+00 0.000000000E+00 4.279392780E+02
2.898000000E-03 5.094900000E+00 0.000000000E+00 4.278122843E+02
2.899740000E-03 5.094600000E+00 0.000000000E+00 4.275555739E+02
2.903560000E-03 5.094100000E+00 0.000000000E+00 4.269930706E+02
2.904130000E-03 5.094000000E+00 0.000000000E+00 4.269092637E+02
2.904560000E-03 5.094000000E+00 0.000000000E+00 4.268460627E+02
2.904880000E-03 5.093900000E+00 0.000000000E+00 4.267990416E+02
2.905370000E-03 5.093900000E+00 0.000000000E+00 4.267270606E+02
2.905610000E-03 5.093800000E+00 0.000000000E+00 4.266918134E+02
2.906290000E-03 5.093700000E+00 0.000000000E+00 4.265919781E+02
2.912830000E-03 5.092800000E+00 0.000000000E+00 4.256341771E+02
2.914580000E-03 5.092600000E+00 0.000000000E+00 4.253786137E+02
2.919810000E-03 5.091900000E+00 0.000000000E+00 4.246166703E+02
2.923300000E-03 5.091400000E+00 0.000000000E+00 4.241097390E+02
2.926790000E-03 5.090900000E+00 0.000000000E+00 4.236040167E+02
2.930280000E-03 5.090400000E+00 0.000000000E+00 4.230994990E+02
2.933770000E-03 5.089900000E+00 0.000000000E+00 4.225961817E+02
2.937260000E-03 5.089400000E+00 0.000000000E+00 4.220940605E+02
2.940750000E-03 5.089000000E+00 0.000000000E+00 4.215931310E+02
2.947730000E-03 5.088000000E+00 0.000000000E+00 4.205948306E+02
2.954710000E-03 5.087000000E+00 0.000000000E+00 4.196012468E+02
2.961690000E-03 5.086100000E+00 0.000000000E+00 4.186123463E+02
2.968680000E-03 5.085100000E+00 0.000000000E+00 4.176266893E+02
2.975660000E-03 5.084100000E+00 0.000000000E+00 4.166470632E+02
2.980670000E-03 5.083400000E+00 0.000000000E+00 4.159467502E+02
2.990610000E-03 5.082100000E+00 0.000000000E+00 4.145642528E+02
3.000400000E-03 5.080700000E+00 0.000000000E+00 4.132115718E+02
3.010030000E-03 5.078700000E+00 0.000000000E+00 4.118895825E+02
3.029000000E-03 5.074800000E+00 0.000000000E+00 4.093100033E+02
3.047380000E-03 5.071000000E+00 0.000000000E+00 4.068412866E+02
3.065180000E-03 5.067300000E+00 0.000000000E+00 4.044786929E+02
3.099670000E-03 5.060200000E+00 0.000000000E+00 3.999780622E+02
3.132010000E-03 5.053600000E+00 0.000000000E+00 3.958480337E+02
3.162320000E-03 5.047300000E+00 0.000000000E+00 3.920539351E+02
3.219170000E-03 5.035600000E+00 0.000000000E+00 3.851303286E+02
3.268900000E-03 5.025400000E+00 0.000000000E+00 3.792713145E+02
3.442980000E-03 4.989500000E+00 0.000000000E+00 3.600950340E+02
3.464740000E-03 4.985000000E+00 0.000000000E+00 3.578334882E+02
3.483770000E-03 4.981100000E+00 0.000000000E+00 3.558788324E+02
3.500430000E-03 4.977700000E+00 0.000000000E+00 3.541850573E+02
3.515010000E-03 4.974700000E+00 0.000000000E+00 3.527159240E+02
3.527770000E-03 4.972100000E+00 0.000000000E+00 3.514401449E+02
3.533350000E-03 4.970900000E+00 0.000000000E+00 3.508851373E+02
3.543410000E-03 4.968800000E+00 0.000000000E+00 3.498889488E+02
3.548010000E-03 4.967900000E+00 0.000000000E+00 3.494353173E+02
3.552320000E-03 4.967000000E+00 0.000000000E+00 3.490113503E+02
3.560410000E-03 4.965300000E+00 0.000000000E+00 3.482183232E+02
3.567490000E-03 4.963900000E+00 0.000000000E+00 3.475272531E+02
3.573690000E-03 4.962600000E+00 0.000000000E+00 3.469243275E+02
3.584530000E-03 4.960400000E+00 0.000000000E+00 3.458751914E+02
3.592660000E-03 4.958700000E+00 0.000000000E+00 3.450924941E+02
3.598760000E-03 4.957400000E+00 0.000000000E+00 3.445075526E+02
3.607900000E-03 4.955600000E+00 0.000000000E+00 3.436348014E+02
3.612480000E-03 4.954600000E+00 0.000000000E+00 3.431991319E+02
3.617050000E-03 4.953700000E+00 0.000000000E+00 3.427655133E+02
3.633520000E-03 4.950200000E+00 0.000000000E+00 3.412118276E+02
3.634860000E-03 4.949800000E+00 0.000000000E+00 3.410860391E+02
3.643760000E-03 4.947400000E+00 0.000000000E+00 3.402529255E+02
3.652660000E-03 4.945000000E+00 0.000000000E+00 3.394238719E+02
3.661570000E-03 4.942500000E+00 0.000000000E+00 3.385979238E+02
3.666020000E-03 4.941300000E+00 0.000000000E+00 3.381869166E+02
3.670470000E-03 4.940100000E+00 0.000000000E+00 3.377769060E+02
3.675600000E-03 4.938600000E+00 0.000000000E+00 3.373054739E+02
3.681600000E-03 4.936700000E+00 0.000000000E+00 3.367557584E+02
3.684940000E-03 4.935700000E+00 0.000000000E+00 3.364505257E+02
3.688270000E-03 4.934600000E+00 0.000000000E+00 3.361467572E+02
3.694950000E-03 4.932500000E+00 0.000000000E+00 3.355390465E+02
3.701630000E-03 4.930400000E+00 0.000000000E+00 3.349335293E+02
3.703850000E-03 4.929700000E+00 0.000000000E+00 3.347327781E+02
3.704970000E-03 4.929300000E+00 0.000000000E+00 3.346315895E+02
3.705520000E-03 4.929100000E+00 0.000000000E+00 3.345819210E+02
3.705800000E-03 4.929000000E+00 0.000000000E+00 3.345566409E+02
3.706080000E-03 4.928900000E+00 0.000000000E+00 3.345313647E+02
3.714980000E-03 4.926100000E+00 0.000000000E+00 3.337299259E+02
3.717210000E-03 4.925400000E+00 0.000000000E+00 3.335297172E+02
3.723890000E-03 4.923300000E+00 0.000000000E+00 3.329314239E+02
3.728340000E-03 4.921900000E+00 0.000000000E+00 3.325340500E+02
3.732790000E-03 4.920400000E+00 0.000000000E+00 3.321376236E+02
3.737240000E-03 4.919000000E+00 0.000000000E+00 3.317421413E+02
3.743920000E-03 4.916900000E+00 0.000000000E+00 3.311502383E+02
3.750590000E-03 4.914800000E+00 0.000000000E+00 3.305613250E+02
3.759500000E-03 4.911900000E+00 0.000000000E+00 3.297778960E+02
3.768400000E-03 4.909100000E+00 0.000000000E+00 3.289990447E+02
3.777300000E-03 4.906300000E+00 0.000000000E+00 3.282238636E+02
3.785550000E-03 4.903700000E+00 0.000000000E+00 3.275085523E+02
3.794500000E-03 4.900800000E+00 0.000000000E+00 3.267360654E+02
3.795110000E-03 4.900600000E+00 0.000000000E+00 3.266835480E+02
3.803440000E-03 4.898000000E+00 0.000000000E+00 3.259680710E+02
3.812380000E-03 4.895100000E+00 0.000000000E+00 3.252036785E+02
3.821220000E-03 4.892300000E+00 0.000000000E+00 3.244513532E+02
3.830620000E-03 4.889300000E+00 0.000000000E+00 3.236551785E+02
3.840030000E-03 4.886300000E+00 0.000000000E+00 3.228620610E+02
3.849430000E-03 4.883300000E+00 0.000000000E+00 3.220736577E+02
3.858840000E-03 4.880300000E+00 0.000000000E+00 3.212882628E+02
3.868240000E-03 4.877300000E+00 0.000000000E+00 3.205075176E+02
3.877650000E-03 4.874300000E+00 0.000000000E+00 3.197297332E+02
3.887050000E-03 4.871300000E+00 0.000000000E+00 3.189565352E+02
3.896460000E-03 4.868400000E+00 0.000000000E+00 3.181862511E+02
3.905860000E-03 4.865400000E+00 0.000000000E+00 3.174204913E+02
3.915270000E-03 4.862400000E+00 0.000000000E+00 3.166575996E+02
3.924680000E-03 4.859400000E+00 0.000000000E+00 3.158983662E+02
3.934080000E-03 4.856400000E+00 0.000000000E+00 3.151435660E+02
3.943490000E-03 4.853400000E+00 0.000000000E+00 3.143915669E+02
3.962300000E-03 4.847400000E+00 0.000000000E+00 3.128990738E+02
3.971700000E-03 4.844400000E+00 0.000000000E+00 3.121585215E+02
3.981110000E-03 4.841400000E+00 0.000000000E+00 3.114206842E+02
3.990510000E-03 4.838400000E+00 0.000000000E+00 3.106871052E+02
4.000000000E-03 4.835400000E+00 0.000000000E+00 3.099500000E+02
4.009320000E-03 4.832300000E+00 0.000000000E+00 3.092294953E+02
4.033230000E-03 4.824500000E+00 0.000000000E+00 3.073963052E+02
4.075060000E-03 4.810800000E+00 0.000000000E+00 3.042409192E+02
4.200560000E-03 4.769600000E+00 0.000000000E+00 2.951511227E+02
4.203840000E-03 4.768500000E+00 0.000000000E+00 2.949208343E+02
4.217020000E-03 4.764200000E+00 0.000000000E+00 2.939990799E+02
4.220300000E-03 4.763100000E+00 0.000000000E+00 2.937705850E+02
4.224330000E-03 4.761800000E+00 0.000000000E+00 2.934903286E+02
4.241080000E-03 4.756300000E+00 0.000000000E+00 2.923311987E+02
4.245230000E-03 4.755000000E+00 0.000000000E+00 2.920454251E+02
4.252250000E-03 4.752700000E+00 0.000000000E+00 2.915632900E+02
4.255570000E-03 4.751600000E+00 0.000000000E+00 2.913358258E+02
4.260920000E-03 4.749800000E+00 0.000000000E+00 2.909700253E+02
4.281900000E-03 4.742900000E+00 0.000000000E+00 2.895443611E+02
4.292390000E-03 4.739500000E+00 0.000000000E+00 2.888367553E+02
4.303430000E-03 4.735900000E+00 0.000000000E+00 2.880957748E+02
4.314290000E-03 4.732300000E+00 0.000000000E+00 2.873705755E+02
4.327930000E-03 4.727800000E+00 0.000000000E+00 2.864648920E+02
4.341580000E-03 4.723400000E+00 0.000000000E+00 2.855642416E+02
4.355650000E-03 4.718700000E+00 0.000000000E+00 2.846417871E+02
4.366060000E-03 4.715300000E+00 0.000000000E+00 2.839631155E+02
4.376490000E-03 4.711900000E+00 0.000000000E+00 2.832863779E+02
4.386930000E-03 4.708500000E+00 0.000000000E+00 2.826122140E+02
4.395830000E-03 4.705600000E+00 0.000000000E+00 2.820400243E+02
4.404720000E-03 4.702600000E+00 0.000000000E+00 2.814707859E+02
4.408000000E-03 4.701600000E+00 0.000000000E+00 2.812613430E+02
4.418850000E-03 4.698000000E+00 0.000000000E+00 2.805707367E+02
4.428730000E-03 4.694800000E+00 0.000000000E+00 2.799448149E+02
4.432510000E-03 4.693500000E+00 0.000000000E+00 2.797060808E+02
4.440550000E-03 4.690900000E+00 0.000000000E+00 2.791996487E+02
4.451400000E-03 4.687300000E+00 0.000000000E+00 2.785191176E+02
4.454110000E-03 4.686400000E+00 0.000000000E+00 2.783496591E+02
4.462250000E-03 4.683800000E+00 0.000000000E+00 2.778418959E+02
4.464960000E-03 4.682900000E+00 0.000000000E+00 2.776732602E+02
4.474460000E-03 4.679800000E+00 0.000000000E+00 2.770837151E+02
4.477000000E-03 4.678900000E+00 0.000000000E+00 2.769265133E+02
4.479230000E-03 4.678200000E+00 0.000000000E+00 2.767886445E+02
4.483120000E-03 4.676900000E+00 0.000000000E+00 2.765484752E+02
4.486040000E-03 4.676000000E+00 0.000000000E+00 2.763684675E+02
4.490420000E-03 4.674500000E+00 0.000000000E+00 2.760988950E+02
4.492610000E-03 4.673800000E+00 0.000000000E+00 2.759643058E+02
4.494800000E-03 4.673100000E+00 0.000000000E+00 2.758298478E+02
4.500230000E-03 4.671300000E+00 0.000000000E+00 2.754970302E+02
4.502940000E-03 4.670400000E+00 0.000000000E+00 2.753312280E+02
4.511080000E-03 4.667800000E+00 0.000000000E+00 2.748344077E+02
4.516500000E-03 4.666000000E+00 0.000000000E+00 2.745045943E+02
4.527350000E-03 4.662400000E+00 0.000000000E+00 2.738467315E+02
4.538200000E-03 4.658900000E+00 0.000000000E+00 2.731920145E+02
4.549050000E-03 4.655300000E+00 0.000000000E+00 2.725404205E+02
4.559060000E-03 4.652000000E+00 0.000000000E+00 2.719420231E+02
4.569070000E-03 4.648700000E+00 0.000000000E+00 2.713462477E+02
4.581600000E-03 4.644500000E+00 0.000000000E+00 2.706041558E+02
4.592450000E-03 4.639600000E+00 0.000000000E+00 2.699648336E+02
4.603300000E-03 4.634700000E+00 0.000000000E+00 2.693285252E+02
4.614150000E-03 4.629800000E+00 0.000000000E+00 2.686952093E+02
4.625000000E-03 4.624900000E+00 0.000000000E+00 2.680648649E+02
4.635600000E-03 4.620100000E+00 0.000000000E+00 2.674518940E+02
4.646500000E-03 4.615100000E+00 0.000000000E+00 2.668244916E+02
4.656670000E-03 4.610500000E+00 0.000000000E+00 2.662417564E+02
4.667620000E-03 4.605600000E+00 0.000000000E+00 2.656171668E+02
4.724390000E-03 4.577000000E+00 0.000000000E+00 2.624254137E+02
4.781170000E-03 4.546000000E+00 0.000000000E+00 2.593089139E+02
4.792940000E-03 4.539400000E+00 0.000000000E+00 2.586721303E+02
4.804700000E-03 4.532900000E+00 0.000000000E+00 2.580390035E+02
4.805860000E-03 4.532200000E+00 0.000000000E+00 2.579767201E+02
4.807360000E-03 4.531400000E+00 0.000000000E+00 2.578962258E+02
4.812400000E-03 4.528600000E+00 0.000000000E+00 2.576261325E+02
4.824240000E-03 4.522000000E+00 0.000000000E+00 2.569938477E+02
4.829520000E-03 4.519000000E+00 0.000000000E+00 2.567128824E+02
4.836090000E-03 4.515300000E+00 0.000000000E+00 2.563641289E+02
4.841350000E-03 4.512400000E+00 0.000000000E+00 2.560855960E+02
4.849430000E-03 4.507900000E+00 0.000000000E+00 2.556589125E+02
4.854690000E-03 4.504900000E+00 0.000000000E+00 2.553819090E+02
4.861330000E-03 4.501200000E+00 0.000000000E+00 2.550330877E+02
4.871620000E-03 4.495500000E+00 0.000000000E+00 2.544943982E+02
4.877100000E-03 4.492400000E+00 0.000000000E+00 2.542084435E+02
4.885320000E-03 4.487800000E+00 0.000000000E+00 2.537807145E+02
4.893540000E-03 4.483200000E+00 0.000000000E+00 2.533544224E+02
4.901250000E-03 4.478900000E+00 0.000000000E+00 2.529558786E+02
4.905110000E-03 4.476800000E+00 0.000000000E+00 2.527568189E+02
4.908960000E-03 4.474600000E+00 0.000000000E+00 2.525585867E+02
4.915670000E-03 4.470900000E+00 0.000000000E+00 2.522138386E+02
4.922390000E-03 4.467100000E+00 0.000000000E+00 2.518695187E+02
4.934150000E-03 4.460500000E+00 0.000000000E+00 2.512692156E+02
4.945920000E-03 4.454000000E+00 0.000000000E+00 2.506712604E+02
4.957690000E-03 4.447400000E+00 0.000000000E+00 2.500761443E+02
4.966510000E-03 4.442500000E+00 0.000000000E+00 2.496320354E+02
4.975320000E-03 4.437500000E+00 0.000000000E+00 2.491900018E+02
4.985220000E-03 4.432000000E+00 0.000000000E+00 2.486951428E+02
4.995120000E-03 4.426500000E+00 0.000000000E+00 2.482022454E+02
5.005560000E-03 4.420700000E+00 0.000000000E+00 2.476845748E+02
5.013790000E-03 4.416100000E+00 0.000000000E+00 2.472780073E+02
5.018780000E-03 4.413300000E+00 0.000000000E+00 2.470321473E+02
