# Data retrieved from https://www-nds.iaea.org/epdl97/za1to100.htm 03/01/2021
# Element, Ni  (Z = 28) 
# Atomic weight, g mol-1 = 58.71 
# Nominal density, g cm-3 =  8.90200E+0 
# Relativistic correction estimate f_rel(5CL)*,  e atom-1 =  0 
# Nuclear Thomson correction f_NT*, e atom-1 =  0 
#    E [keV]      f1 [e atom-1]      f2 [e atom-1]    Wavelength [nm] 
1.000000000E-03 3.372900000E+00 0.000000000E+00 1.239800000E+03
1.125000000E-03 3.371500000E+00 0.000000000E+00 1.102044444E+03
1.265630000E-03 3.369900000E+00 0.000000000E+00 9.795911917E+02
1.423830000E-03 3.368100000E+00 0.000000000E+00 8.707500193E+02
1.601810000E-03 3.366100000E+00 0.000000000E+00 7.739994132E+02
1.802030000E-03 3.363800000E+00 0.000000000E+00 6.880018646E+02
2.027290000E-03 3.360900000E+00 0.000000000E+00 6.115553276E+02
2.280700000E-03 3.355000000E+00 0.000000000E+00 5.436050335E+02
2.525220000E-03 3.349200000E+00 0.000000000E+00 4.909671237E+02
2.739170000E-03 3.344200000E+00 0.000000000E+00 4.526188590E+02
2.926380000E-03 3.339800000E+00 0.000000000E+00 4.236633657E+02
3.090190000E-03 3.335900000E+00 0.000000000E+00 4.012051039E+02
3.233520000E-03 3.332500000E+00 0.000000000E+00 3.834211633E+02
3.358940000E-03 3.329600000E+00 0.000000000E+00 3.691045389E+02
3.468680000E-03 3.327000000E+00 0.000000000E+00 3.574270328E+02
3.564700000E-03 3.324700000E+00 0.000000000E+00 3.477992538E+02
3.648720000E-03 3.322700000E+00 0.000000000E+00 3.397903922E+02
3.722240000E-03 3.321000000E+00 0.000000000E+00 3.330790062E+02
3.850890000E-03 3.318000000E+00 0.000000000E+00 3.219515489E+02
3.947380000E-03 3.315700000E+00 0.000000000E+00 3.140817454E+02
4.019750000E-03 3.313400000E+00 0.000000000E+00 3.084271410E+02
4.074030000E-03 3.310600000E+00 0.000000000E+00 3.043178376E+02
4.114730000E-03 3.308400000E+00 0.000000000E+00 3.013077407E+02
4.145260000E-03 3.306800000E+00 0.000000000E+00 2.990885976E+02
4.168160000E-03 3.305600000E+00 0.000000000E+00 2.974453956E+02
4.202510000E-03 3.303800000E+00 0.000000000E+00 2.950141701E+02
4.219680000E-03 3.302900000E+00 0.000000000E+00 2.938137489E+02
4.236860000E-03 3.302000000E+00 0.000000000E+00 2.926223666E+02
4.247280000E-03 3.301400000E+00 0.000000000E+00 2.919044659E+02
4.257710000E-03 3.300900000E+00 0.000000000E+00 2.911893952E+02
4.268140000E-03 3.300300000E+00 0.000000000E+00 2.904778194E+02
4.278570000E-03 3.299800000E+00 0.000000000E+00 2.897697128E+02
4.283180000E-03 3.299500000E+00 0.000000000E+00 2.894578327E+02
4.299430000E-03 3.298700000E+00 0.000000000E+00 2.883638064E+02
4.304270000E-03 3.298400000E+00 0.000000000E+00 2.880395514E+02
4.314810000E-03 3.297800000E+00 0.000000000E+00 2.873359429E+02
4.325350000E-03 3.297300000E+00 0.000000000E+00 2.866357636E+02
4.335900000E-03 3.296700000E+00 0.000000000E+00 2.859383288E+02
4.343730000E-03 3.296300000E+00 0.000000000E+00 2.854228969E+02
4.351570000E-03 3.295900000E+00 0.000000000E+00 2.849086651E+02
4.359550000E-03 3.295500000E+00 0.000000000E+00 2.843871500E+02
4.363540000E-03 3.295300000E+00 0.000000000E+00 2.841271078E+02
4.367520000E-03 3.295100000E+00 0.000000000E+00 2.838681906E+02
4.375430000E-03 3.294600000E+00 0.000000000E+00 2.833550074E+02
4.380700000E-03 3.294400000E+00 0.000000000E+00 2.830141302E+02
4.386630000E-03 3.294100000E+00 0.000000000E+00 2.826315418E+02
4.388120000E-03 3.294000000E+00 0.000000000E+00 2.825355733E+02
4.388940000E-03 3.293900000E+00 0.000000000E+00 2.824827863E+02
4.389580000E-03 3.293900000E+00 0.000000000E+00 2.824416003E+02
4.399150000E-03 3.293400000E+00 0.000000000E+00 2.818271712E+02
4.400470000E-03 3.293300000E+00 0.000000000E+00 2.817426320E+02
4.409700000E-03 3.292800000E+00 0.000000000E+00 2.811529129E+02
4.413410000E-03 3.292600000E+00 0.000000000E+00 2.809165702E+02
4.418990000E-03 3.292300000E+00 0.000000000E+00 2.805618478E+02
4.424570000E-03 3.292000000E+00 0.000000000E+00 2.802080202E+02
4.432950000E-03 3.291600000E+00 0.000000000E+00 2.796783181E+02
4.437130000E-03 3.291400000E+00 0.000000000E+00 2.794148470E+02
4.441320000E-03 3.291200000E+00 0.000000000E+00 2.791512433E+02
4.451870000E-03 3.290600000E+00 0.000000000E+00 2.784897133E+02
4.462410000E-03 3.290000000E+00 0.000000000E+00 2.778319339E+02
4.472950000E-03 3.289500000E+00 0.000000000E+00 2.771772544E+02
4.488760000E-03 3.288700000E+00 0.000000000E+00 2.762009998E+02
4.494040000E-03 3.288400000E+00 0.000000000E+00 2.758764942E+02
4.498050000E-03 3.288200000E+00 0.000000000E+00 2.756305510E+02
4.506040000E-03 3.287700000E+00 0.000000000E+00 2.751418097E+02
4.513980000E-03 3.287300000E+00 0.000000000E+00 2.746578408E+02
4.529720000E-03 3.286500000E+00 0.000000000E+00 2.737034519E+02
4.545210000E-03 3.285700000E+00 0.000000000E+00 2.727706751E+02
4.560470000E-03 3.284900000E+00 0.000000000E+00 2.718579445E+02
4.575480000E-03 3.284100000E+00 0.000000000E+00 2.709661063E+02
4.605040000E-03 3.282500000E+00 0.000000000E+00 2.692267602E+02
4.633680000E-03 3.281000000E+00 0.000000000E+00 2.675627147E+02
4.661420000E-03 3.279500000E+00 0.000000000E+00 2.659704554E+02
4.688290000E-03 3.278100000E+00 0.000000000E+00 2.644460987E+02
4.714330000E-03 3.276700000E+00 0.000000000E+00 2.629854083E+02
4.739550000E-03 3.275400000E+00 0.000000000E+00 2.615860155E+02
4.763980000E-03 3.274100000E+00 0.000000000E+00 2.602445854E+02
4.787650000E-03 3.272900000E+00 0.000000000E+00 2.589579439E+02
4.810580000E-03 3.271700000E+00 0.000000000E+00 2.577236009E+02
4.821690000E-03 3.271100000E+00 0.000000000E+00 2.571297616E+02
4.832620000E-03 3.270500000E+00 0.000000000E+00 2.565482078E+02
5.004820000E-03 3.261400000E+00 0.000000000E+00 2.477211968E+02
5.069400000E-03 3.258000000E+00 0.000000000E+00 2.445654318E+02
5.125900000E-03 3.255000000E+00 0.000000000E+00 2.418697204E+02
5.175340000E-03 3.252400000E+00 0.000000000E+00 2.395591401E+02
5.218600000E-03 3.250100000E+00 0.000000000E+00 2.375732955E+02
5.256450000E-03 3.248100000E+00 0.000000000E+00 2.358626069E+02
5.289570000E-03 3.246400000E+00 0.000000000E+00 2.343857818E+02
5.318550000E-03 3.244800000E+00 0.000000000E+00 2.331086480E+02
5.369270000E-03 3.242100000E+00 0.000000000E+00 2.309066223E+02
5.407310000E-03 3.240100000E+00 0.000000000E+00 2.292822124E+02
5.435830000E-03 3.238600000E+00 0.000000000E+00 2.280792446E+02
5.457230000E-03 3.237500000E+00 0.000000000E+00 2.271848539E+02
5.473280000E-03 3.236600000E+00 0.000000000E+00 2.265186506E+02
5.485310000E-03 3.236000000E+00 0.000000000E+00 2.260218657E+02
5.503360000E-03 3.235100000E+00 0.000000000E+00 2.252805559E+02
5.512390000E-03 3.234600000E+00 0.000000000E+00 2.249115175E+02
5.516900000E-03 3.234300000E+00 0.000000000E+00 2.247276550E+02
5.521420000E-03 3.234100000E+00 0.000000000E+00 2.245436862E+02
5.535010000E-03 3.233400000E+00 0.000000000E+00 2.239923686E+02
5.548600000E-03 3.232700000E+00 0.000000000E+00 2.234437516E+02
5.562190000E-03 3.232000000E+00 0.000000000E+00 2.228978154E+02
5.575780000E-03 3.231200000E+00 0.000000000E+00 2.223545405E+02
5.589370000E-03 3.230500000E+00 0.000000000E+00 2.218139075E+02
5.596160000E-03 3.230200000E+00 0.000000000E+00 2.215447736E+02
5.602960000E-03 3.229800000E+00 0.000000000E+00 2.212758970E+02
5.609750000E-03 3.229400000E+00 0.000000000E+00 2.210080663E+02
5.616550000E-03 3.229100000E+00 0.000000000E+00 2.207404902E+02
5.623340000E-03 3.228700000E+00 0.000000000E+00 2.204739532E+02
5.630140000E-03 3.228400000E+00 0.000000000E+00 2.202076680E+02
5.636930000E-03 3.228000000E+00 0.000000000E+00 2.199424155E+02
5.640330000E-03 3.227800000E+00 0.000000000E+00 2.198098338E+02
5.647130000E-03 3.227500000E+00 0.000000000E+00 2.195451495E+02
5.652220000E-03 3.227200000E+00 0.000000000E+00 2.193474422E+02
5.654770000E-03 3.227100000E+00 0.000000000E+00 2.192485282E+02
5.655890000E-03 3.227000000E+00 0.000000000E+00 2.192051118E+02
5.656240000E-03 3.227000000E+00 0.000000000E+00 2.191915477E+02
5.656510000E-03 3.227000000E+00 0.000000000E+00 2.191810852E+02
5.656720000E-03 3.227000000E+00 0.000000000E+00 2.191729483E+02
5.657020000E-03 3.226900000E+00 0.000000000E+00 2.191613252E+02
5.657170000E-03 3.226900000E+00 0.000000000E+00 2.191555142E+02
5.657530000E-03 3.226900000E+00 0.000000000E+00 2.191415688E+02
5.658370000E-03 3.226900000E+00 0.000000000E+00 2.191090367E+02
5.670910000E-03 3.226200000E+00 0.000000000E+00 2.186245241E+02
5.674310000E-03 3.226000000E+00 0.000000000E+00 2.184935261E+02
5.684500000E-03 3.225500000E+00 0.000000000E+00 2.181018559E+02
5.691300000E-03 3.225100000E+00 0.000000000E+00 2.178412665E+02
5.698090000E-03 3.224800000E+00 0.000000000E+00 2.175816809E+02
5.704890000E-03 3.224400000E+00 0.000000000E+00 2.173223322E+02
5.711680000E-03 3.224100000E+00 0.000000000E+00 2.170639812E+02
5.718480000E-03 3.223700000E+00 0.000000000E+00 2.168058645E+02
5.725270000E-03 3.223300000E+00 0.000000000E+00 2.165487392E+02
5.738860000E-03 3.222600000E+00 0.000000000E+00 2.160359375E+02
5.752450000E-03 3.221900000E+00 0.000000000E+00 2.155255587E+02
5.766040000E-03 3.221200000E+00 0.000000000E+00 2.150175857E+02
5.779630000E-03 3.220500000E+00 0.000000000E+00 2.145120016E+02
5.793220000E-03 3.219700000E+00 0.000000000E+00 2.140087896E+02
5.801750000E-03 3.219300000E+00 0.000000000E+00 2.136941440E+02
5.818530000E-03 3.218400000E+00 0.000000000E+00 2.130778736E+02
5.834780000E-03 3.217600000E+00 0.000000000E+00 2.124844467E+02
5.866280000E-03 3.215900000E+00 0.000000000E+00 2.113434749E+02
5.895810000E-03 3.214200000E+00 0.000000000E+00 2.102849312E+02
5.923490000E-03 3.212400000E+00 0.000000000E+00 2.093022863E+02
5.975400000E-03 3.209000000E+00 0.000000000E+00 2.074840178E+02
6.020810000E-03 3.206100000E+00 0.000000000E+00 2.059191371E+02
6.100290000E-03 3.201000000E+00 0.000000000E+00 2.032362396E+02
6.159900000E-03 3.197100000E+00 0.000000000E+00 2.012695011E+02
6.338730000E-03 3.185600000E+00 0.000000000E+00 1.955912304E+02
6.350760000E-03 3.184800000E+00 0.000000000E+00 1.952207295E+02
6.382030000E-03 3.182800000E+00 0.000000000E+00 1.942642075E+02
6.397660000E-03 3.181800000E+00 0.000000000E+00 1.937896043E+02
6.413290000E-03 3.180800000E+00 0.000000000E+00 1.933173145E+02
6.427830000E-03 3.179800000E+00 0.000000000E+00 1.928800233E+02
6.443430000E-03 3.178800000E+00 0.000000000E+00 1.924130471E+02
6.459030000E-03 3.177800000E+00 0.000000000E+00 1.919483266E+02
6.479150000E-03 3.176500000E+00 0.000000000E+00 1.913522607E+02
6.490850000E-03 3.175800000E+00 0.000000000E+00 1.910073411E+02
6.508400000E-03 3.174600000E+00 0.000000000E+00 1.904922869E+02
6.525950000E-03 3.173500000E+00 0.000000000E+00 1.899800029E+02
6.541560000E-03 3.172500000E+00 0.000000000E+00 1.895266572E+02
6.557160000E-03 3.171500000E+00 0.000000000E+00 1.890757584E+02
6.572760000E-03 3.170500000E+00 0.000000000E+00 1.886269999E+02
6.588360000E-03 3.169500000E+00 0.000000000E+00 1.881803666E+02
6.603960000E-03 3.168500000E+00 0.000000000E+00 1.877358433E+02
6.619570000E-03 3.167500000E+00 0.000000000E+00 1.872931323E+02
6.641480000E-03 3.166100000E+00 0.000000000E+00 1.866752591E+02
6.663400000E-03 3.164600000E+00 0.000000000E+00 1.860611700E+02
6.680970000E-03 3.163500000E+00 0.000000000E+00 1.855718556E+02
6.696790000E-03 3.162500000E+00 0.000000000E+00 1.851334744E+02
6.712610000E-03 3.161500000E+00 0.000000000E+00 1.846971595E+02
6.728430000E-03 3.160400000E+00 0.000000000E+00 1.842628964E+02
6.743790000E-03 3.159400000E+00 0.000000000E+00 1.838432098E+02
6.744250000E-03 3.159400000E+00 0.000000000E+00 1.838306706E+02
6.780600000E-03 3.157100000E+00 0.000000000E+00 1.828451759E+02
6.844220000E-03 3.152000000E+00 0.000000000E+00 1.811455506E+02
7.035060000E-03 3.129800000E+00 0.000000000E+00 1.762316171E+02
7.039920000E-03 3.129200000E+00 0.000000000E+00 1.761099558E+02
7.067780000E-03 3.126000000E+00 0.000000000E+00 1.754157600E+02
7.074580000E-03 3.125200000E+00 0.000000000E+00 1.752471525E+02
7.091900000E-03 3.123100000E+00 0.000000000E+00 1.748191599E+02
7.102570000E-03 3.121900000E+00 0.000000000E+00 1.745565338E+02
7.109230000E-03 3.121100000E+00 0.000000000E+00 1.743930074E+02
7.121640000E-03 3.119700000E+00 0.000000000E+00 1.740891143E+02
7.137360000E-03 3.117900000E+00 0.000000000E+00 1.737056839E+02
7.157740000E-03 3.115500000E+00 0.000000000E+00 1.732110974E+02
7.175150000E-03 3.113500000E+00 0.000000000E+00 1.727908127E+02
7.192550000E-03 3.111400000E+00 0.000000000E+00 1.723728024E+02
7.209950000E-03 3.109400000E+00 0.000000000E+00 1.719568097E+02
7.227360000E-03 3.107400000E+00 0.000000000E+00 1.715425826E+02
7.244760000E-03 3.105400000E+00 0.000000000E+00 1.711305827E+02
7.262160000E-03 3.103300000E+00 0.000000000E+00 1.707205570E+02
7.279570000E-03 3.101300000E+00 0.000000000E+00 1.703122575E+02
7.317170000E-03 3.096900000E+00 0.000000000E+00 1.694370911E+02
7.331780000E-03 3.095200000E+00 0.000000000E+00 1.690994547E+02
7.346750000E-03 3.093500000E+00 0.000000000E+00 1.687548916E+02
7.352860000E-03 3.092800000E+00 0.000000000E+00 1.686146615E+02
7.364060000E-03 3.091500000E+00 0.000000000E+00 1.683582154E+02
7.381380000E-03 3.089500000E+00 0.000000000E+00 1.679631722E+02
7.386590000E-03 3.088900000E+00 0.000000000E+00 1.678447024E+02
7.402830000E-03 3.087000000E+00 0.000000000E+00 1.674764921E+02
7.407150000E-03 3.086500000E+00 0.000000000E+00 1.673788164E+02
7.415700000E-03 3.085500000E+00 0.000000000E+00 1.671858355E+02
7.420960000E-03 3.084900000E+00 0.000000000E+00 1.670673336E+02
7.425250000E-03 3.084400000E+00 0.000000000E+00 1.669708091E+02
7.440870000E-03 3.082500000E+00 0.000000000E+00 1.666203011E+02
7.461450000E-03 3.080200000E+00 0.000000000E+00 1.661607328E+02
7.497640000E-03 3.075900000E+00 0.000000000E+00 1.653586995E+02
7.515740000E-03 3.073800000E+00 0.000000000E+00 1.649604696E+02
7.533840000E-03 3.071700000E+00 0.000000000E+00 1.645641532E+02
7.551940000E-03 3.069600000E+00 0.000000000E+00 1.641697365E+02
7.570040000E-03 3.067500000E+00 0.000000000E+00 1.637772059E+02
7.588130000E-03 3.065400000E+00 0.000000000E+00 1.633867633E+02
7.624330000E-03 3.061200000E+00 0.000000000E+00 1.626110098E+02
7.642430000E-03 3.059100000E+00 0.000000000E+00 1.622258889E+02
7.659450000E-03 3.057100000E+00 0.000000000E+00 1.618654081E+02
7.677320000E-03 3.055000000E+00 0.000000000E+00 1.614886445E+02
7.696080000E-03 3.052900000E+00 0.000000000E+00 1.610949990E+02
7.715730000E-03 3.050600000E+00 0.000000000E+00 1.606847311E+02
7.731580000E-03 3.048700000E+00 0.000000000E+00 1.603553219E+02
7.796240000E-03 3.037200000E+00 1.144920000E-06 1.590253763E+02
7.825670000E-03 3.029000000E+00 8.770620000E-06 1.584273295E+02
7.846990000E-03 3.022200000E+00 3.347840000E-05 1.579968880E+02
7.878070000E-03 3.010800000E+00 1.940910000E-04 1.573735699E+02
7.942170000E-03 2.977700000E+00 3.598020000E-03 1.561034327E+02
8.027840000E-03 2.909300000E+00 4.587680000E-02 1.544375573E+02
8.113600000E-03 2.890900000E+00 1.589800000E-01 1.528051666E+02
8.214840000E-03 2.976100000E+00 2.327530000E-01 1.509219900E+02
8.726300000E-03 3.100700000E+00 1.754690000E-01 1.420762522E+02
9.130530000E-03 3.100100000E+00 1.352260000E-01 1.357862030E+02
9.549930000E-03 3.078300000E+00 1.026430000E-01 1.298229411E+02
9.949950000E-03 3.047900000E+00 7.831010000E-02 1.246036412E+02
1.014500000E-02 3.031100000E+00 6.839110000E-02 1.222079842E+02
1.030920000E-02 3.016300000E+00 6.092260000E-02 1.202615140E+02
1.041880000E-02 3.006100000E+00 5.629650000E-02 1.189964295E+02
1.045160000E-02 3.003000000E+00 5.500280000E-02 1.186229860E+02
1.054310000E-02 2.994300000E+00 5.145650000E-02 1.175934972E+02
1.058890000E-02 2.989900000E+00 4.974500000E-02 1.170848719E+02
1.063460000E-02 2.985500000E+00 4.810390000E-02 1.165817238E+02
1.066080000E-02 2.983000000E+00 4.717610000E-02 1.162952124E+02
1.068700000E-02 2.980500000E+00 4.625250000E-02 1.160101057E+02
1.070010000E-02 2.979200000E+00 4.581270000E-02 1.158680760E+02
1.072630000E-02 2.976600000E+00 4.493300000E-02 1.155850573E+02
1.074590000E-02 2.974700000E+00 4.427330000E-02 1.153742358E+02
1.075570000E-02 2.973800000E+00 4.394350000E-02 1.152691131E+02
1.077730000E-02 2.971600000E+00 4.322750000E-02 1.150380893E+02
1.079490000E-02 2.969900000E+00 4.266840000E-02 1.148505313E+02
1.081250000E-02 2.968200000E+00 4.210930000E-02 1.146635838E+02
1.082820000E-02 2.966600000E+00 4.160730000E-02 1.144973310E+02
1.084400000E-02 2.965100000E+00 4.110540000E-02 1.143305053E+02
1.085710000E-02 2.963800000E+00 4.068960000E-02 1.141925560E+02
1.087020000E-02 2.962500000E+00 4.027950000E-02 1.140549392E+02
1.088330000E-02 2.961200000E+00 3.988770000E-02 1.139176537E+02
1.089640000E-02 2.959900000E+00 3.949580000E-02 1.137806982E+02
1.090190000E-02 2.959400000E+00 3.933220000E-02 1.137232959E+02
1.094390000E-02 2.955200000E+00 3.807360000E-02 1.132868539E+02
1.094880000E-02 2.954700000E+00 3.792830000E-02 1.132361537E+02
1.095550000E-02 2.954000000E+00 3.772530000E-02 1.131669025E+02
1.098240000E-02 2.951400000E+00 3.695520000E-02 1.128897145E+02
1.100210000E-02 2.949400000E+00 3.639820000E-02 1.126875778E+02
1.100920000E-02 2.948700000E+00 3.619850000E-02 1.126149039E+02
1.103680000E-02 2.945900000E+00 3.542030000E-02 1.123332850E+02
1.105710000E-02 2.943200000E+00 3.484790000E-02 1.121270496E+02
1.107630000E-02 2.940600000E+00 3.433910000E-02 1.119326851E+02
1.109640000E-02 2.937900000E+00 3.380540000E-02 1.117299304E+02
1.110650000E-02 2.936500000E+00 3.353850000E-02 1.116283258E+02
1.111650000E-02 2.935100000E+00 3.327170000E-02 1.115279090E+02
1.112990000E-02 2.933300000E+00 3.291580000E-02 1.113936334E+02
1.113670000E-02 2.932400000E+00 3.273790000E-02 1.113256171E+02
1.114340000E-02 2.931500000E+00 3.256000000E-02 1.112586823E+02
1.115010000E-02 2.930600000E+00 3.238210000E-02 1.111918279E+02
1.116010000E-02 2.929300000E+00 3.212090000E-02 1.110921945E+02
1.116270000E-02 2.928900000E+00 3.205820000E-02 1.110663191E+02
1.116600000E-02 2.928400000E+00 3.197600000E-02 1.110334945E+02
1.116670000E-02 2.928200000E+00 3.195700000E-02 1.110265342E+02
1.116890000E-02 2.927900000E+00 3.190280000E-02 1.110046647E+02
1.116950000E-02 2.927800000E+00 3.188650000E-02 1.109987018E+02
1.117020000E-02 2.927700000E+00 3.187020000E-02 1.109917459E+02
1.119700000E-02 2.923400000E+00 3.120180000E-02 1.107260873E+02
1.120370000E-02 2.922400000E+00 3.103470000E-02 1.106598713E+02
1.122390000E-02 2.919200000E+00 3.053340000E-02 1.104607133E+02
1.123730000E-02 2.917100000E+00 3.019920000E-02 1.103289936E+02
1.125860000E-02 2.913700000E+00 2.966890000E-02 1.101202636E+02
1.126410000E-02 2.912800000E+00 2.953880000E-02 1.100664944E+02
1.128420000E-02 2.909600000E+00 2.906640000E-02 1.098704383E+02
1.130440000E-02 2.906400000E+00 2.859410000E-02 1.096741092E+02
1.133120000E-02 2.902200000E+00 2.796420000E-02 1.094147134E+02
1.135800000E-02 2.897900000E+00 2.735330000E-02 1.091565416E+02
1.137940000E-02 2.894500000E+00 2.688270000E-02 1.089512628E+02
1.138490000E-02 2.893700000E+00 2.676190000E-02 1.088986289E+02
1.140630000E-02 2.890200000E+00 2.628880000E-02 1.086943181E+02
1.143330000E-02 2.886000000E+00 2.569480000E-02 1.084376339E+02
1.143850000E-02 2.885100000E+00 2.557900000E-02 1.083883376E+02
1.146020000E-02 2.881700000E+00 2.511020000E-02 1.081831033E+02
1.148720000E-02 2.877400000E+00 2.454940000E-02 1.079288251E+02
1.152290000E-02 2.871700000E+00 2.380600000E-02 1.075944424E+02
1.156480000E-02 2.865000000E+00 2.297590000E-02 1.072046209E+02
1.165340000E-02 2.850900000E+00 2.126800000E-02 1.063895515E+02
1.178630000E-02 2.829700000E+00 1.889510000E-02 1.051899239E+02
1.191920000E-02 2.808400000E+00 1.672380000E-02 1.040170481E+02
1.197790000E-02 2.799000000E+00 1.582740000E-02 1.035072926E+02
1.200720000E-02 2.794400000E+00 1.539940000E-02 1.032547138E+02
