# Data retrieved from https://www-nds.iaea.org/epdl97/za1to100.htm 03/01/2021
# Element, O  (Z = 8) 
# Atomic weight, g mol-1 = 15.999 
# Nominal density, g cm-3 =  1.42900E-3 
# Relativistic correction estimate f_rel(5CL)*,  e atom-1 =  0 
# Nuclear Thomson correction f_NT*, e atom-1 =  0 
#    E [keV]      f1 [e atom-1]      f2 [e atom-1]    Wavelength [nm] 
1.000000000E-03 7.110000000E-01 0.000000000E+00 1.239800000E+03
2.000000000E-03 6.963100000E-01 0.000000000E+00 6.199000000E+02
2.250000000E-03 6.887100000E-01 0.000000000E+00 5.510222222E+02
2.531250000E-03 6.801600000E-01 0.000000000E+00 4.897975309E+02
2.847660000E-03 6.705400000E-01 0.000000000E+00 4.353750097E+02
3.203610000E-03 6.597200000E-01 0.000000000E+00 3.870009146E+02
3.604060000E-03 6.475500000E-01 0.000000000E+00 3.440009323E+02
4.000000000E-03 6.355100000E-01 0.000000000E+00 3.099500000E+02
4.561390000E-03 6.045700000E-01 0.000000000E+00 2.718031126E+02
5.131570000E-03 5.731400000E-01 0.000000000E+00 2.416024725E+02
5.724110000E-03 5.404800000E-01 0.000000000E+00 2.165926231E+02
6.000000000E-03 5.252700000E-01 0.000000000E+00 2.066333333E+02
6.242590000E-03 5.054200000E-01 0.000000000E+00 1.986034643E+02
6.696250000E-03 4.683000000E-01 0.000000000E+00 1.851484040E+02
7.093210000E-03 4.358200000E-01 0.000000000E+00 1.747868736E+02
7.440550000E-03 4.073900000E-01 0.000000000E+00 1.666274671E+02
7.500000000E-03 4.025300000E-01 0.000000000E+00 1.653066667E+02
7.744470000E-03 3.745400000E-01 0.000000000E+00 1.600884244E+02
8.010400000E-03 3.440600000E-01 0.000000000E+00 1.547737941E+02
8.243090000E-03 3.167300000E-01 0.000000000E+00 1.504047633E+02
8.446690000E-03 2.928200000E-01 0.000000000E+00 1.467793893E+02
8.803000000E-03 2.509700000E-01 0.000000000E+00 1.408383506E+02
9.030600000E-03 2.239600000E-01 0.000000000E+00 1.372887737E+02
9.070230000E-03 2.176100000E-01 0.000000000E+00 1.366889263E+02
9.270650000E-03 1.854900000E-01 0.000000000E+00 1.337338806E+02
9.420970000E-03 1.614000000E-01 0.000000000E+00 1.316000369E+02
9.533700000E-03 1.433400000E-01 0.000000000E+00 1.300439494E+02
9.618260000E-03 1.297900000E-01 0.000000000E+00 1.289006535E+02
9.681670000E-03 1.196200000E-01 0.000000000E+00 1.280564200E+02
9.729230000E-03 1.120000000E-01 0.000000000E+00 1.274304339E+02
9.800570000E-03 1.005700000E-01 0.000000000E+00 1.265028463E+02
9.836240000E-03 9.485000000E-02 0.000000000E+00 1.260440982E+02
9.871920000E-03 8.914000000E-02 0.000000000E+00 1.255885380E+02
9.896210000E-03 8.524000000E-02 0.000000000E+00 1.252802841E+02
9.913590000E-03 8.246000000E-02 0.000000000E+00 1.250606491E+02
9.962390000E-03 7.464000000E-02 0.000000000E+00 1.244480491E+02
9.986790000E-03 7.073000000E-02 0.000000000E+00 1.241439942E+02
1.001120000E-02 6.682000000E-02 0.000000000E+00 1.238412977E+02
1.003560000E-02 6.291000000E-02 0.000000000E+00 1.235401969E+02
1.005090000E-02 6.044000000E-02 0.000000000E+00 1.233521376E+02
1.006630000E-02 5.798000000E-02 0.000000000E+00 1.231634265E+02
1.008760000E-02 5.458000000E-02 0.000000000E+00 1.229033665E+02
1.009820000E-02 5.288000000E-02 0.000000000E+00 1.227743558E+02
1.010880000E-02 5.117000000E-02 0.000000000E+00 1.226456157E+02
1.012710000E-02 4.824000000E-02 0.000000000E+00 1.224239911E+02
1.013930000E-02 4.629000000E-02 0.000000000E+00 1.222766858E+02
1.014840000E-02 4.482000000E-02 0.000000000E+00 1.221670411E+02
1.015300000E-02 4.409000000E-02 0.000000000E+00 1.221116911E+02
1.015530000E-02 4.372000000E-02 0.000000000E+00 1.220840349E+02
1.015760000E-02 4.335000000E-02 0.000000000E+00 1.220563913E+02
1.015910000E-02 4.311000000E-02 0.000000000E+00 1.220383695E+02
1.017860000E-02 3.944000000E-02 0.000000000E+00 1.218045704E+02
1.018200000E-02 3.871000000E-02 0.000000000E+00 1.217638971E+02
1.018510000E-02 3.807000000E-02 0.000000000E+00 1.217268363E+02
1.019570000E-02 3.583000000E-02 0.000000000E+00 1.216002825E+02
1.020640000E-02 3.359000000E-02 0.000000000E+00 1.214728014E+02
1.021390000E-02 3.201000000E-02 0.000000000E+00 1.213836047E+02
1.022510000E-02 2.965000000E-02 0.000000000E+00 1.212506479E+02
1.023640000E-02 2.729000000E-02 0.000000000E+00 1.211167989E+02
1.024720000E-02 2.502000000E-02 0.000000000E+00 1.209891483E+02
1.026340000E-02 2.161000000E-02 0.000000000E+00 1.207981760E+02
1.027960000E-02 1.821000000E-02 0.000000000E+00 1.206078058E+02
1.030400000E-02 1.308000000E-02 0.000000000E+00 1.203222050E+02
1.032840000E-02 7.960000000E-03 0.000000000E+00 1.200379536E+02
1.035280000E-02 2.830000000E-03 0.000000000E+00 1.197550421E+02
1.038940000E-02 -4.860000000E-03 0.000000000E+00 1.193331665E+02
1.040160000E-02 -7.420000000E-03 0.000000000E+00 1.191932010E+02
1.040790000E-02 -8.740000000E-03 0.000000000E+00 1.191210523E+02
1.042030000E-02 -1.135000000E-02 0.000000000E+00 1.189793000E+02
1.044470000E-02 -1.648000000E-02 0.000000000E+00 1.187013509E+02
1.046840000E-02 -2.146000000E-02 0.000000000E+00 1.184326163E+02
1.049140000E-02 -2.628000000E-02 0.000000000E+00 1.181729798E+02
1.051360000E-02 -3.094000000E-02 0.000000000E+00 1.179234515E+02
1.055660000E-02 -3.999000000E-02 0.000000000E+00 1.174431162E+02
1.059700000E-02 -4.847000000E-02 0.000000000E+00 1.169953760E+02
1.067030000E-02 -6.388000000E-02 0.000000000E+00 1.161916722E+02
1.073430000E-02 -7.731000000E-02 0.000000000E+00 1.154989147E+02
1.096840000E-02 -1.265000000E-01 0.000000000E+00 1.130338062E+02
1.103950000E-02 -1.422800000E-01 0.000000000E+00 1.123058110E+02
1.107090000E-02 -1.506800000E-01 0.000000000E+00 1.119872820E+02
1.110380000E-02 -1.594900000E-01 0.000000000E+00 1.116554693E+02
1.115320000E-02 -1.727100000E-01 0.000000000E+00 1.111609224E+02
1.117790000E-02 -1.793200000E-01 0.000000000E+00 1.109152882E+02
1.119020000E-02 -1.826300000E-01 0.000000000E+00 1.107933728E+02
1.120260000E-02 -1.859300000E-01 0.000000000E+00 1.106707372E+02
1.124560000E-02 -1.974600000E-01 0.000000000E+00 1.102475635E+02
1.125770000E-02 -2.007000000E-01 0.000000000E+00 1.101290672E+02
1.128530000E-02 -2.080800000E-01 0.000000000E+00 1.098597290E+02
1.131430000E-02 -2.158600000E-01 0.000000000E+00 1.095781445E+02
1.134190000E-02 -2.232400000E-01 0.000000000E+00 1.093114910E+02
1.136300000E-02 -2.288800000E-01 0.000000000E+00 1.091085101E+02
1.138400000E-02 -2.345100000E-01 0.000000000E+00 1.089072382E+02
1.140430000E-02 -2.399500000E-01 0.000000000E+00 1.087133800E+02
1.141450000E-02 -2.426700000E-01 0.000000000E+00 1.086162337E+02
1.142460000E-02 -2.453900000E-01 0.000000000E+00 1.085202108E+02
1.143840000E-02 -2.490800000E-01 0.000000000E+00 1.083892852E+02
1.144530000E-02 -2.509300000E-01 0.000000000E+00 1.083239408E+02
1.145220000E-02 -2.527700000E-01 0.000000000E+00 1.082586752E+02
1.147640000E-02 -2.592300000E-01 0.000000000E+00 1.080303928E+02
1.148480000E-02 -2.614800000E-01 0.000000000E+00 1.079513792E+02
1.149470000E-02 -2.641300000E-01 0.000000000E+00 1.078584043E+02
1.150580000E-02 -2.671100000E-01 0.000000000E+00 1.077543500E+02
1.151080000E-02 -2.684600000E-01 0.000000000E+00 1.077075442E+02
1.151690000E-02 -2.700800000E-01 0.000000000E+00 1.076504962E+02
1.154030000E-02 -2.763500000E-01 0.000000000E+00 1.074322158E+02
1.154970000E-02 -2.788600000E-01 0.000000000E+00 1.073447795E+02
1.156370000E-02 -2.826200000E-01 0.000000000E+00 1.072148188E+02
1.157780000E-02 -2.863800000E-01 0.000000000E+00 1.070842474E+02
1.159770000E-02 -2.917300000E-01 0.000000000E+00 1.069005061E+02
1.160770000E-02 -2.944000000E-01 0.000000000E+00 1.068084117E+02
1.161770000E-02 -2.970700000E-01 0.000000000E+00 1.067164757E+02
1.164530000E-02 -3.044500000E-01 0.000000000E+00 1.064635518E+02
1.165900000E-02 -3.081300000E-01 0.000000000E+00 1.063384510E+02
1.167130000E-02 -3.119700000E-01 0.000000000E+00 1.062263844E+02
1.169890000E-02 -3.208600000E-01 0.000000000E+00 1.059757755E+02
1.174820000E-02 -3.373100000E-01 0.000000000E+00 1.055310601E+02
1.175400000E-02 -3.392500000E-01 0.000000000E+00 1.054789859E+02
1.175560000E-02 -3.397600000E-01 0.000000000E+00 1.054646296E+02
1.176610000E-02 -3.432800000E-01 0.000000000E+00 1.053705136E+02
1.179780000E-02 -3.538300000E-01 0.000000000E+00 1.050873892E+02
1.179920000E-02 -3.543100000E-01 0.000000000E+00 1.050749203E+02
1.182200000E-02 -3.619300000E-01 0.000000000E+00 1.048722720E+02
1.217040000E-02 -4.805800000E-01 0.000000000E+00 1.018701111E+02
1.221200000E-02 -4.994800000E-01 0.000000000E+00 1.015230920E+02
1.226030000E-02 -5.214300000E-01 0.000000000E+00 1.011231373E+02
1.227210000E-02 -5.268100000E-01 0.000000000E+00 1.010259043E+02
1.230220000E-02 -5.404700000E-01 0.000000000E+00 1.007787225E+02
1.232870000E-02 -5.525400000E-01 0.000000000E+00 1.005621031E+02
1.233230000E-02 -5.541300000E-01 0.000000000E+00 1.005327473E+02
1.236230000E-02 -5.678000000E-01 0.000000000E+00 1.002887812E+02
1.237030000E-02 -5.714400000E-01 0.000000000E+00 1.002239234E+02
1.239240000E-02 -5.814600000E-01 0.000000000E+00 1.000451890E+02
1.243120000E-02 -5.991200000E-01 0.000000000E+00 9.973293005E+01
1.247000000E-02 -6.167500000E-01 0.000000000E+00 9.942261427E+01
1.249080000E-02 -6.261800000E-01 0.000000000E+00 9.925705319E+01
1.252190000E-02 -6.403300000E-01 0.000000000E+00 9.901053355E+01
1.253740000E-02 -6.474000000E-01 0.000000000E+00 9.888812672E+01
1.255300000E-02 -6.544800000E-01 0.000000000E+00 9.876523540E+01
1.257140000E-02 -6.628400000E-01 0.000000000E+00 9.862067868E+01
1.258980000E-02 -6.712100000E-01 0.000000000E+00 9.847654450E+01
1.261980000E-02 -6.848300000E-01 0.000000000E+00 9.824244441E+01
1.265350000E-02 -7.001500000E-01 0.000000000E+00 9.798079583E+01
1.266000000E-02 -7.031200000E-01 0.000000000E+00 9.793048973E+01
1.266990000E-02 -7.075900000E-01 0.000000000E+00 9.785396886E+01
1.268860000E-02 -7.161000000E-01 0.000000000E+00 9.770975521E+01
1.271710000E-02 -7.290800000E-01 0.000000000E+00 9.749078013E+01
1.273960000E-02 -7.392900000E-01 0.000000000E+00 9.731859713E+01
1.275800000E-02 -7.476500000E-01 0.000000000E+00 9.717824110E+01
1.277180000E-02 -7.539200000E-01 0.000000000E+00 9.707323948E+01
1.279250000E-02 -7.633300000E-01 0.000000000E+00 9.691616181E+01
1.280280000E-02 -7.680300000E-01 0.000000000E+00 9.683819165E+01
1.281320000E-02 -7.727400000E-01 0.000000000E+00 9.675959167E+01
1.282700000E-02 -7.790400000E-01 0.000000000E+00 9.665549232E+01
1.284230000E-02 -7.859600000E-01 0.000000000E+00 9.654033935E+01
1.285750000E-02 -7.928800000E-01 0.000000000E+00 9.642621038E+01
1.288790000E-02 -8.102200000E-01 0.000000000E+00 9.619876008E+01
1.291170000E-02 -8.253000000E-01 0.000000000E+00 9.602143792E+01
1.291840000E-02 -8.297000000E-01 0.000000000E+00 9.597163735E+01
1.292270000E-02 -8.325400000E-01 0.000000000E+00 9.593970300E+01
1.293570000E-02 -8.410600000E-01 0.000000000E+00 9.584328641E+01
1.295340000E-02 -8.527100000E-01 0.000000000E+00 9.571232263E+01
1.297530000E-02 -8.671000000E-01 0.000000000E+00 9.555077725E+01
1.297630000E-02 -8.677900000E-01 0.000000000E+00 9.554341376E+01
1.297930000E-02 -8.697500000E-01 0.000000000E+00 9.552133012E+01
1.298650000E-02 -8.745100000E-01 0.000000000E+00 9.546837100E+01
1.300820000E-02 -8.887900000E-01 0.000000000E+00 9.530911271E+01
1.301800000E-02 -8.951900000E-01 0.000000000E+00 9.523736365E+01
1.304020000E-02 -9.098000000E-01 0.000000000E+00 9.507522891E+01
1.307210000E-02 -9.308000000E-01 0.000000000E+00 9.484321570E+01
1.310410000E-02 -9.518100000E-01 0.000000000E+00 9.461161011E+01
1.312510000E-02 -9.656400000E-01 0.000000000E+00 9.446023268E+01
1.314610000E-02 -9.794800000E-01 0.000000000E+00 9.430933889E+01
1.317300000E-02 -9.971500000E-01 0.000000000E+00 9.411675397E+01
1.318640000E-02 -1.005980000E+00 0.000000000E+00 9.402111266E+01
1.319990000E-02 -1.014820000E+00 0.000000000E+00 9.392495398E+01
1.321590000E-02 -1.025320000E+00 0.000000000E+00 9.381124252E+01
1.322380000E-02 -1.030730000E+00 0.000000000E+00 9.375519896E+01
1.324780000E-02 -1.051470000E+00 0.000000000E+00 9.358535002E+01
1.325920000E-02 -1.061340000E+00 0.000000000E+00 9.350488717E+01
1.326380000E-02 -1.065780000E+00 0.000000000E+00 9.347245887E+01
1.329570000E-02 -1.096750000E+00 0.000000000E+00 9.324819302E+01
1.330450000E-02 -1.105250000E+00 0.000000000E+00 9.318651584E+01
1.334180000E-02 -1.141430000E+00 0.000000000E+00 9.292599200E+01
1.335200000E-02 -1.151300000E+00 0.000000000E+00 9.285500300E+01
1.336720000E-02 -1.166110000E+00 0.000000000E+00 9.274941648E+01
1.338250000E-02 -1.180920000E+00 0.000000000E+00 9.264337755E+01
1.340300000E-02 -1.200770000E+00 0.000000000E+00 9.250167873E+01
1.341320000E-02 -1.210690000E+00 0.000000000E+00 9.243133630E+01
1.342350000E-02 -1.220620000E+00 0.000000000E+00 9.236041271E+01
1.343940000E-02 -1.236100000E+00 0.000000000E+00 9.225114216E+01
1.345540000E-02 -1.251590000E+00 0.000000000E+00 9.214144507E+01
1.348730000E-02 -1.282560000E+00 0.000000000E+00 9.192351323E+01
1.352680000E-02 -1.320870000E+00 0.000000000E+00 9.165508472E+01
1.355700000E-02 -1.350120000E+00 0.000000000E+00 9.145091097E+01
1.359930000E-02 -1.394130000E+00 1.078520000E-06 9.116645710E+01
1.366610000E-02 -1.481890000E+00 1.983580000E-05 9.072083477E+01
1.372230000E-02 -1.568080000E+00 1.606590000E-04 9.034928547E+01
1.382200000E-02 -1.759310000E+00 3.603450000E-03 8.969758356E+01
1.390760000E-02 -1.989600000E+00 2.908040000E-02 8.914550318E+01
1.406030000E-02 -2.560300000E+00 3.582660000E-01 8.817735041E+01
1.421970000E-02 -2.743700000E+00 1.252090000E+00 8.718889991E+01
1.444120000E-02 -2.109000000E+00 1.879140000E+00 8.585159128E+01
1.450900000E-02 -1.968230000E+00 1.917170000E+00 8.545041009E+01
1.461470000E-02 -1.814980000E+00 1.953440000E+00 8.483239478E+01
1.464650000E-02 -1.780090000E+00 1.962560000E+00 8.464820947E+01
1.467820000E-02 -1.745190000E+00 1.971690000E+00 8.446539766E+01
1.469900000E-02 -1.722340000E+00 1.977660000E+00 8.434587387E+01
1.470940000E-02 -1.710910000E+00 1.980640000E+00 8.428623873E+01
1.471980000E-02 -1.699490000E+00 1.983630000E+00 8.422668786E+01
1.473790000E-02 -1.679580000E+00 1.988830000E+00 8.412324687E+01
1.475600000E-02 -1.659660000E+00 1.994040000E+00 8.402005964E+01
1.478130000E-02 -1.633000000E+00 2.001300000E+00 8.387624904E+01
1.479230000E-02 -1.624930000E+00 2.004510000E+00 8.381387614E+01
1.482850000E-02 -1.598360000E+00 2.015070000E+00 8.360926594E+01
1.486470000E-02 -1.571780000E+00 2.025640000E+00 8.340565232E+01
1.490090000E-02 -1.545200000E+00 2.036200000E+00 8.320302801E+01
1.491750000E-02 -1.533050000E+00 2.041040000E+00 8.311044076E+01
1.494240000E-02 -1.514810000E+00 2.048290000E+00 8.297194560E+01
1.496720000E-02 -1.496930000E+00 2.055510000E+00 8.283446470E+01
1.498840000E-02 -1.482950000E+00 2.061540000E+00 8.271730138E+01
1.499900000E-02 -1.475960000E+00 2.064560000E+00 8.265884392E+01
1.500960000E-02 -1.470410000E+00 2.067430000E+00 8.260046903E+01
1.502780000E-02 -1.461170000E+00 2.072310000E+00 8.250043253E+01
1.503680000E-02 -1.456550000E+00 2.074760000E+00 8.245105342E+01
1.504130000E-02 -1.454240000E+00 2.075980000E+00 8.242638602E+01
1.505240000E-02 -1.448610000E+00 2.078950000E+00 8.236560283E+01
1.506720000E-02 -1.441030000E+00 2.082960000E+00 8.228469789E+01
1.507840000E-02 -1.435350000E+00 2.085960000E+00 8.222357810E+01
1.508660000E-02 -1.431140000E+00 2.088180000E+00 8.217888722E+01
1.511830000E-02 -1.414970000E+00 2.096730000E+00 8.200657481E+01
1.512740000E-02 -1.410350000E+00 2.099170000E+00 8.195724315E+01
1.515460000E-02 -1.396500000E+00 2.106500000E+00 8.181014345E+01
1.517270000E-02 -1.387260000E+00 2.111380000E+00 8.171254951E+01
1.519080000E-02 -1.378020000E+00 2.116260000E+00 8.161518814E+01
1.522350000E-02 -1.361320000E+00 2.125090000E+00 8.143987913E+01
1.525630000E-02 -1.344630000E+00 2.133910000E+00 8.126478897E+01
1.529950000E-02 -1.322590000E+00 2.145560000E+00 8.103532795E+01
1.533570000E-02 -1.305520000E+00 2.155180000E+00 8.084404364E+01
1.537190000E-02 -1.289110000E+00 2.164730000E+00 8.065366025E+01
1.544440000E-02 -1.256290000E+00 2.183830000E+00 8.027505115E+01
1.546230000E-02 -1.248190000E+00 2.188540000E+00 8.018212038E+01
1.550000000E-02 -1.231100000E+00 2.198480000E+00 7.998709677E+01
1.556900000E-02 -1.206390000E+00 2.215730000E+00 7.963260325E+01
1.563950000E-02 -1.181140000E+00 2.233350000E+00 7.927363407E+01
1.570940000E-02 -1.156080000E+00 2.250830000E+00 7.892090086E+01
1.584820000E-02 -1.106360000E+00 2.285530000E+00 7.822970432E+01
1.598480000E-02 -1.059910000E+00 2.319090000E+00 7.756118312E+01
1.611930000E-02 -1.017260000E+00 2.351500000E+00 7.691400991E+01
1.638410000E-02 -9.437300000E-01 2.412070000E+00 7.567092486E+01
1.664050000E-02 -8.745500000E-01 2.469880000E+00 7.450497281E+01
1.688900000E-02 -8.116400000E-01 2.523790000E+00 7.340872757E+01
1.737040000E-02 -6.984800000E-01 2.622930000E+00 7.137429190E+01
1.782180000E-02 -5.980600000E-01 2.710750000E+00 6.956648599E+01
1.927530000E-02 -2.996400000E-01 2.961820000E+00 6.432065908E+01
2.120670000E-02 6.051000000E-02 3.231290000E+00 5.846265567E+01
2.161350000E-02 1.338000000E-01 3.281610000E+00 5.736229671E+01
2.213520000E-02 2.244600000E-01 3.339970000E+00 5.601033648E+01
2.243270000E-02 2.739600000E-01 3.372890000E+00 5.526753356E+01
2.270260000E-02 3.184100000E-01 3.401450000E+00 5.461048514E+01
2.293870000E-02 3.573100000E-01 3.426440000E+00 5.404839856E+01
2.314530000E-02 3.906400000E-01 3.446520000E+00 5.356595075E+01
2.332610000E-02 4.195400000E-01 3.463430000E+00 5.315076245E+01
2.348430000E-02 4.448400000E-01 3.478220000E+00 5.279271684E+01
2.362270000E-02 4.669700000E-01 3.491160000E+00 5.248341637E+01
2.374390000E-02 4.862600000E-01 3.502320000E+00 5.221551641E+01
2.384980000E-02 5.029600000E-01 3.511620000E+00 5.198366443E+01
2.403530000E-02 5.321900000E-01 3.527900000E+00 5.158246413E+01
2.417440000E-02 5.541100000E-01 3.540110000E+00 5.128565756E+01
2.427870000E-02 5.705500000E-01 3.549270000E+00 5.106533711E+01
2.435700000E-02 5.828800000E-01 3.556140000E+00 5.090117831E+01
2.441570000E-02 5.921200000E-01 3.561290000E+00 5.077880216E+01
2.450370000E-02 6.059900000E-01 3.569020000E+00 5.059644054E+01
2.456970000E-02 6.164000000E-01 3.574810000E+00 5.046052658E+01
2.459170000E-02 6.198600000E-01 3.576740000E+00 5.041538405E+01
2.462200000E-02 6.246300000E-01 3.579400000E+00 5.035334254E+01
2.471280000E-02 6.389300000E-01 3.587340000E+00 5.016833382E+01
2.477330000E-02 6.482000000E-01 3.591910000E+00 5.004581545E+01
2.483380000E-02 6.574800000E-01 3.596480000E+00 4.992389405E+01
2.489440000E-02 6.667600000E-01 3.601050000E+00 4.980236519E+01
2.492460000E-02 6.713900000E-01 3.603330000E+00 4.974202194E+01
2.495490000E-02 6.760300000E-01 3.605620000E+00 4.968162565E+01
2.498510000E-02 6.806700000E-01 3.607900000E+00 4.962157446E+01
2.501540000E-02 6.853100000E-01 3.610190000E+00 4.956147013E+01
2.504570000E-02 6.899400000E-01 3.612470000E+00 4.950151124E+01
2.507590000E-02 6.942500000E-01 3.614760000E+00 4.944189441E+01
2.512130000E-02 7.007100000E-01 3.618190000E+00 4.935254147E+01
2.514400000E-02 7.039400000E-01 3.619900000E+00 4.930798600E+01
2.517050000E-02 7.077100000E-01 3.621900000E+00 4.925607358E+01
2.518380000E-02 7.095900000E-01 3.622900000E+00 4.923006059E+01
2.518710000E-02 7.100600000E-01 3.623150000E+00 4.922361050E+01
2.518960000E-02 7.104200000E-01 3.623340000E+00 4.921872519E+01
2.519140000E-02 7.106800000E-01 3.623480000E+00 4.921520836E+01
2.519420000E-02 7.110800000E-01 3.623690000E+00 4.920973875E+01
2.519560000E-02 7.112800000E-01 3.623800000E+00 4.920700440E+01
2.519890000E-02 7.117400000E-01 3.624040000E+00 4.920056034E+01
2.525750000E-02 7.200900000E-01 3.628470000E+00 4.908640998E+01
2.527270000E-02 7.222400000E-01 3.629610000E+00 4.905688747E+01
2.531810000E-02 7.287000000E-01 3.633040000E+00 4.896891947E+01
2.534830000E-02 7.330100000E-01 3.635330000E+00 4.891057783E+01
