# Data retrieved from https://www-nds.iaea.org/epdl97/za1to100.htm 03/01/2021
# Element, Os  (Z = 76) 
# Atomic weight, g mol-1 = 190.2 
# Nominal density, g cm-3 =  2.25700E+1 
# Relativistic correction estimate f_rel(5CL)*,  e atom-1 =  0 
# Nuclear Thomson correction f_NT*, e atom-1 =  0 
#    E [keV]      f1 [e atom-1]      f2 [e atom-1]    Wavelength [nm] 
1.000000000E-03 6.037800000E+00 0.000000000E+00 1.239800000E+03
1.191930000E-03 6.028200000E+00 0.000000000E+00 1.040161754E+03
1.194870000E-03 6.028100000E+00 0.000000000E+00 1.037602417E+03
1.197800000E-03 6.027900000E+00 0.000000000E+00 1.035064285E+03
1.200730000E-03 6.027800000E+00 0.000000000E+00 1.032538539E+03
1.203670000E-03 6.027600000E+00 0.000000000E+00 1.030016533E+03
1.206600000E-03 6.027500000E+00 0.000000000E+00 1.027515332E+03
1.209530000E-03 6.027300000E+00 0.000000000E+00 1.025026250E+03
1.212470000E-03 6.027200000E+00 0.000000000E+00 1.022540764E+03
1.215400000E-03 6.027000000E+00 0.000000000E+00 1.020075695E+03
1.218340000E-03 6.026900000E+00 0.000000000E+00 1.017614131E+03
1.221270000E-03 6.026700000E+00 0.000000000E+00 1.015172730E+03
1.224200000E-03 6.026600000E+00 0.000000000E+00 1.012743016E+03
1.227140000E-03 6.026500000E+00 0.000000000E+00 1.010316671E+03
1.230070000E-03 6.026300000E+00 0.000000000E+00 1.007910119E+03
1.235940000E-03 6.026000000E+00 0.000000000E+00 1.003123129E+03
1.238870000E-03 6.025900000E+00 0.000000000E+00 1.000750684E+03
1.241810000E-03 6.025700000E+00 0.000000000E+00 9.983813949E+02
1.244740000E-03 6.025600000E+00 0.000000000E+00 9.960312997E+02
1.247670000E-03 6.025400000E+00 0.000000000E+00 9.936922423E+02
1.250610000E-03 6.025300000E+00 0.000000000E+00 9.913562182E+02
1.406930000E-03 6.017500000E+00 0.000000000E+00 8.812094418E+02
1.582800000E-03 6.008600000E+00 0.000000000E+00 7.832954258E+02
1.780650000E-03 5.998700000E+00 0.000000000E+00 6.962626007E+02
2.003230000E-03 5.987400000E+00 0.000000000E+00 6.189004757E+02
2.253640000E-03 5.960700000E+00 0.000000000E+00 5.501322305E+02
2.523540000E-03 5.932000000E+00 0.000000000E+00 4.912939759E+02
2.759700000E-03 5.906800000E+00 0.000000000E+00 4.492517303E+02
2.966340000E-03 5.884800000E+00 0.000000000E+00 4.179561345E+02
3.147150000E-03 5.865500000E+00 0.000000000E+00 3.939437269E+02
3.305360000E-03 5.848700000E+00 0.000000000E+00 3.750877363E+02
3.443800000E-03 5.833900000E+00 0.000000000E+00 3.600092921E+02
3.564930000E-03 5.821000000E+00 0.000000000E+00 3.477768147E+02
3.670910000E-03 5.809700000E+00 0.000000000E+00 3.377364196E+02
3.763650000E-03 5.799800000E+00 0.000000000E+00 3.294142654E+02
3.844800000E-03 5.791200000E+00 0.000000000E+00 3.224615065E+02
3.915810000E-03 5.783600000E+00 0.000000000E+00 3.166139317E+02
4.040060000E-03 5.766200000E+00 0.000000000E+00 3.068766305E+02
4.133260000E-03 5.746700000E+00 0.000000000E+00 2.999569347E+02
4.203150000E-03 5.732000000E+00 0.000000000E+00 2.949692493E+02
4.255570000E-03 5.721000000E+00 0.000000000E+00 2.913358258E+02
4.294890000E-03 5.712800000E+00 0.000000000E+00 2.886686271E+02
4.324370000E-03 5.706600000E+00 0.000000000E+00 2.867007217E+02
4.346490000E-03 5.701900000E+00 0.000000000E+00 2.852416548E+02
4.363070000E-03 5.698500000E+00 0.000000000E+00 2.841577146E+02
4.387950000E-03 5.693200000E+00 0.000000000E+00 2.825465194E+02
4.400390000E-03 5.690600000E+00 0.000000000E+00 2.817477542E+02
4.406610000E-03 5.689300000E+00 0.000000000E+00 2.813500627E+02
4.412830000E-03 5.688000000E+00 0.000000000E+00 2.809534924E+02
4.423700000E-03 5.685700000E+00 0.000000000E+00 2.802631282E+02
4.434560000E-03 5.683500000E+00 0.000000000E+00 2.795767788E+02
4.445420000E-03 5.681200000E+00 0.000000000E+00 2.788937828E+02
4.456280000E-03 5.678900000E+00 0.000000000E+00 2.782141158E+02
4.467140000E-03 5.676600000E+00 0.000000000E+00 2.775377535E+02
4.478000000E-03 5.674300000E+00 0.000000000E+00 2.768646717E+02
4.483430000E-03 5.673200000E+00 0.000000000E+00 2.765293536E+02
4.488870000E-03 5.672100000E+00 0.000000000E+00 2.761942315E+02
4.494300000E-03 5.670900000E+00 0.000000000E+00 2.758605345E+02
4.499730000E-03 5.669800000E+00 0.000000000E+00 2.755276428E+02
4.507870000E-03 5.668100000E+00 0.000000000E+00 2.750301140E+02
4.510590000E-03 5.667500000E+00 0.000000000E+00 2.748642639E+02
4.520090000E-03 5.665500000E+00 0.000000000E+00 2.742865739E+02
4.522810000E-03 5.664900000E+00 0.000000000E+00 2.741216191E+02
4.525180000E-03 5.664400000E+00 0.000000000E+00 2.739780517E+02
4.526970000E-03 5.664100000E+00 0.000000000E+00 2.738697186E+02
4.528300000E-03 5.663800000E+00 0.000000000E+00 2.737892807E+02
4.530310000E-03 5.663400000E+00 0.000000000E+00 2.736678064E+02
4.531310000E-03 5.663200000E+00 0.000000000E+00 2.736074115E+02
4.533670000E-03 5.662700000E+00 0.000000000E+00 2.734649853E+02
4.536050000E-03 5.662200000E+00 0.000000000E+00 2.733215022E+02
4.545890000E-03 5.660100000E+00 0.000000000E+00 2.727298725E+02
4.554030000E-03 5.658400000E+00 0.000000000E+00 2.722423875E+02
4.559470000E-03 5.657300000E+00 0.000000000E+00 2.719175694E+02
4.564900000E-03 5.656100000E+00 0.000000000E+00 2.715941204E+02
4.570330000E-03 5.655000000E+00 0.000000000E+00 2.712714399E+02
4.575760000E-03 5.653800000E+00 0.000000000E+00 2.709495253E+02
4.586620000E-03 5.651600000E+00 0.000000000E+00 2.703079828E+02
4.597480000E-03 5.649300000E+00 0.000000000E+00 2.696694711E+02
4.608340000E-03 5.647000000E+00 0.000000000E+00 2.690339688E+02
4.624640000E-03 5.643600000E+00 0.000000000E+00 2.680857321E+02
4.627350000E-03 5.643000000E+00 0.000000000E+00 2.679287281E+02
4.630070000E-03 5.642400000E+00 0.000000000E+00 2.677713296E+02
4.632120000E-03 5.642000000E+00 0.000000000E+00 2.676528242E+02
4.636200000E-03 5.641200000E+00 0.000000000E+00 2.674172814E+02
4.644230000E-03 5.639500000E+00 0.000000000E+00 2.669549096E+02
4.652010000E-03 5.637800000E+00 0.000000000E+00 2.665084555E+02
4.659550000E-03 5.636300000E+00 0.000000000E+00 2.660771963E+02
4.666850000E-03 5.634700000E+00 0.000000000E+00 2.656609919E+02
4.673930000E-03 5.633200000E+00 0.000000000E+00 2.652585726E+02
4.680780000E-03 5.631800000E+00 0.000000000E+00 2.648703849E+02
4.684100000E-03 5.631100000E+00 0.000000000E+00 2.646826498E+02
4.788650000E-03 5.609200000E+00 0.000000000E+00 2.589038664E+02
4.814790000E-03 5.603700000E+00 0.000000000E+00 2.574982502E+02
4.834400000E-03 5.599600000E+00 0.000000000E+00 2.564537481E+02
4.849100000E-03 5.596500000E+00 0.000000000E+00 2.556763111E+02
4.860130000E-03 5.594200000E+00 0.000000000E+00 2.550960571E+02
4.876670000E-03 5.590700000E+00 0.000000000E+00 2.542308584E+02
4.889070000E-03 5.588100000E+00 0.000000000E+00 2.535860603E+02
4.893210000E-03 5.587200000E+00 0.000000000E+00 2.533715087E+02
4.899230000E-03 5.586000000E+00 0.000000000E+00 2.530601748E+02
4.917300000E-03 5.582200000E+00 0.000000000E+00 2.521302341E+02
4.929340000E-03 5.579600000E+00 0.000000000E+00 2.515144015E+02
4.941390000E-03 5.577100000E+00 0.000000000E+00 2.509010623E+02
4.953430000E-03 5.574600000E+00 0.000000000E+00 2.502912124E+02
4.959450000E-03 5.573300000E+00 0.000000000E+00 2.499873978E+02
4.965470000E-03 5.572100000E+00 0.000000000E+00 2.496843199E+02
4.971500000E-03 5.570800000E+00 0.000000000E+00 2.493814744E+02
4.977520000E-03 5.569500000E+00 0.000000000E+00 2.490798631E+02
4.983540000E-03 5.568300000E+00 0.000000000E+00 2.487789804E+02
4.989560000E-03 5.567000000E+00 0.000000000E+00 2.484788238E+02
4.998590000E-03 5.565100000E+00 0.000000000E+00 2.480299444E+02
5.003110000E-03 5.564200000E+00 0.000000000E+00 2.478058648E+02
5.008380000E-03 5.563100000E+00 0.000000000E+00 2.475451144E+02
5.011020000E-03 5.562500000E+00 0.000000000E+00 2.474146980E+02
5.011670000E-03 5.562400000E+00 0.000000000E+00 2.473826090E+02
5.012170000E-03 5.562300000E+00 0.000000000E+00 2.473579308E+02
5.012260000E-03 5.562200000E+00 0.000000000E+00 2.473534892E+02
5.012610000E-03 5.562200000E+00 0.000000000E+00 2.473362181E+02
5.013130000E-03 5.562100000E+00 0.000000000E+00 2.473105625E+02
5.013390000E-03 5.562000000E+00 0.000000000E+00 2.472977367E+02
5.014030000E-03 5.561900000E+00 0.000000000E+00 2.472661711E+02
5.025690000E-03 5.559400000E+00 0.000000000E+00 2.466924940E+02
5.028710000E-03 5.558800000E+00 0.000000000E+00 2.465443424E+02
5.037740000E-03 5.556900000E+00 0.000000000E+00 2.461024189E+02
5.043760000E-03 5.555600000E+00 0.000000000E+00 2.458086824E+02
5.049780000E-03 5.554400000E+00 0.000000000E+00 2.455156462E+02
5.055800000E-03 5.553100000E+00 0.000000000E+00 2.452233079E+02
5.061830000E-03 5.551900000E+00 0.000000000E+00 2.449311810E+02
5.067850000E-03 5.550600000E+00 0.000000000E+00 2.446402321E+02
5.073870000E-03 5.549300000E+00 0.000000000E+00 2.443499735E+02
5.085910000E-03 5.546800000E+00 0.000000000E+00 2.437715178E+02
5.097960000E-03 5.544300000E+00 0.000000000E+00 2.431953173E+02
5.110000000E-03 5.541700000E+00 0.000000000E+00 2.426223092E+02
5.122050000E-03 5.539200000E+00 0.000000000E+00 2.420515223E+02
5.134090000E-03 5.536700000E+00 0.000000000E+00 2.414838852E+02
5.140520000E-03 5.535300000E+00 0.000000000E+00 2.411818260E+02
5.153190000E-03 5.532700000E+00 0.000000000E+00 2.405888391E+02
5.165470000E-03 5.530100000E+00 0.000000000E+00 2.400168813E+02
5.189240000E-03 5.525100000E+00 0.000000000E+00 2.389174523E+02
5.211540000E-03 5.520400000E+00 0.000000000E+00 2.378951327E+02
5.232430000E-03 5.516100000E+00 0.000000000E+00 2.369453581E+02
5.271620000E-03 5.507800000E+00 0.000000000E+00 2.351838714E+02
5.305910000E-03 5.500600000E+00 0.000000000E+00 2.336639709E+02
5.365910000E-03 5.488100000E+00 0.000000000E+00 2.310512103E+02
5.410910000E-03 5.478600000E+00 0.000000000E+00 2.291296658E+02
5.478410000E-03 5.464400000E+00 0.000000000E+00 2.263065378E+02
5.545910000E-03 5.450300000E+00 0.000000000E+00 2.235521312E+02
5.559560000E-03 5.447400000E+00 0.000000000E+00 2.230032593E+02
5.573220000E-03 5.444600000E+00 0.000000000E+00 2.224566768E+02
5.586870000E-03 5.441700000E+00 0.000000000E+00 2.219131643E+02
5.600520000E-03 5.438800000E+00 0.000000000E+00 2.213723011E+02
5.614170000E-03 5.436000000E+00 0.000000000E+00 2.208340681E+02
5.627820000E-03 5.433100000E+00 0.000000000E+00 2.202984459E+02
5.641470000E-03 5.430200000E+00 0.000000000E+00 2.197654158E+02
5.655120000E-03 5.427400000E+00 0.000000000E+00 2.192349588E+02
5.668770000E-03 5.424500000E+00 0.000000000E+00 2.187070564E+02
5.682420000E-03 5.421600000E+00 0.000000000E+00 2.181816902E+02
5.696070000E-03 5.418800000E+00 0.000000000E+00 2.176588420E+02
5.709720000E-03 5.415900000E+00 0.000000000E+00 2.171384937E+02
5.723370000E-03 5.413100000E+00 0.000000000E+00 2.166206274E+02
5.750670000E-03 5.407300000E+00 0.000000000E+00 2.155922701E+02
5.764320000E-03 5.404500000E+00 0.000000000E+00 2.150817442E+02
5.777970000E-03 5.401600000E+00 0.000000000E+00 2.145736305E+02
5.791620000E-03 5.398700000E+00 0.000000000E+00 2.140679119E+02
5.805280000E-03 5.395900000E+00 0.000000000E+00 2.135642036E+02
5.818930000E-03 5.393000000E+00 0.000000000E+00 2.130632264E+02
5.856540000E-03 5.385100000E+00 0.000000000E+00 2.116949598E+02
5.894150000E-03 5.377200000E+00 0.000000000E+00 2.103441548E+02
5.908660000E-03 5.374200000E+00 0.000000000E+00 2.098276090E+02
5.923170000E-03 5.371100000E+00 0.000000000E+00 2.093135939E+02
5.937680000E-03 5.368100000E+00 0.000000000E+00 2.088020911E+02
5.952180000E-03 5.365000000E+00 0.000000000E+00 2.082934320E+02
5.966690000E-03 5.362000000E+00 0.000000000E+00 2.077868969E+02
5.973950000E-03 5.360500000E+00 0.000000000E+00 2.075343784E+02
5.981200000E-03 5.359000000E+00 0.000000000E+00 2.072828195E+02
5.989590000E-03 5.357200000E+00 0.000000000E+00 2.069924653E+02
5.992650000E-03 5.356600000E+00 0.000000000E+00 2.068867696E+02
6.000000000E-03 5.355000000E+00 0.000000000E+00 2.066333333E+02
6.004770000E-03 5.353200000E+00 0.000000000E+00 2.064691903E+02
6.010210000E-03 5.351100000E+00 0.000000000E+00 2.062823096E+02
6.014230000E-03 5.349600000E+00 0.000000000E+00 2.061444275E+02
6.020260000E-03 5.347300000E+00 0.000000000E+00 2.059379495E+02
6.023270000E-03 5.346200000E+00 0.000000000E+00 2.058350365E+02
6.026280000E-03 5.345000000E+00 0.000000000E+00 2.057322262E+02
6.029990000E-03 5.343600000E+00 0.000000000E+00 2.056056478E+02
6.048530000E-03 5.336600000E+00 0.000000000E+00 2.049754238E+02
6.055950000E-03 5.333700000E+00 0.000000000E+00 2.047242794E+02
6.070780000E-03 5.328100000E+00 0.000000000E+00 2.042241689E+02
6.085610000E-03 5.322500000E+00 0.000000000E+00 2.037264958E+02
6.093030000E-03 5.319700000E+00 0.000000000E+00 2.034784007E+02
6.100450000E-03 5.316800000E+00 0.000000000E+00 2.032309092E+02
6.106900000E-03 5.314400000E+00 0.000000000E+00 2.030162603E+02
6.116590000E-03 5.310700000E+00 0.000000000E+00 2.026946387E+02
6.126280000E-03 5.307000000E+00 0.000000000E+00 2.023740345E+02
6.135610000E-03 5.303500000E+00 0.000000000E+00 2.020662982E+02
6.140280000E-03 5.301700000E+00 0.000000000E+00 2.019126164E+02
6.144940000E-03 5.299900000E+00 0.000000000E+00 2.017594964E+02
6.152360000E-03 5.297100000E+00 0.000000000E+00 2.015161662E+02
6.156070000E-03 5.295700000E+00 0.000000000E+00 2.013947210E+02
6.157920000E-03 5.295000000E+00 0.000000000E+00 2.013342167E+02
6.158850000E-03 5.294600000E+00 0.000000000E+00 2.013038148E+02
6.159310000E-03 5.294500000E+00 0.000000000E+00 2.012887807E+02
6.160010000E-03 5.294200000E+00 0.000000000E+00 2.012659070E+02
6.160910000E-03 5.293900000E+00 0.000000000E+00 2.012365056E+02
6.161340000E-03 5.293700000E+00 0.000000000E+00 2.012224613E+02
6.162260000E-03 5.293300000E+00 0.000000000E+00 2.011924197E+02
6.168440000E-03 5.291000000E+00 0.000000000E+00 2.009908502E+02
6.171520000E-03 5.289800000E+00 0.000000000E+00 2.008905424E+02
6.173070000E-03 5.289200000E+00 0.000000000E+00 2.008401006E+02
6.174610000E-03 5.288700000E+00 0.000000000E+00 2.007900094E+02
6.189440000E-03 5.283000000E+00 0.000000000E+00 2.003089132E+02
6.196860000E-03 5.280200000E+00 0.000000000E+00 2.000690672E+02
6.204280000E-03 5.277400000E+00 0.000000000E+00 1.998297949E+02
6.211690000E-03 5.274600000E+00 0.000000000E+00 1.995914155E+02
6.219110000E-03 5.271700000E+00 0.000000000E+00 1.993532837E+02
6.226530000E-03 5.268900000E+00 0.000000000E+00 1.991157193E+02
6.233940000E-03 5.266100000E+00 0.000000000E+00 1.988790396E+02
6.248770000E-03 5.260500000E+00 0.000000000E+00 1.984070465E+02
6.263610000E-03 5.254800000E+00 0.000000000E+00 1.979369724E+02
6.278440000E-03 5.249200000E+00 0.000000000E+00 1.974694351E+02
6.293270000E-03 5.243600000E+00 0.000000000E+00 1.970041012E+02
6.308110000E-03 5.237900000E+00 0.000000000E+00 1.965406437E+02
6.322940000E-03 5.232300000E+00 0.000000000E+00 1.960796718E+02
6.332940000E-03 5.228500000E+00 0.000000000E+00 1.957700531E+02
6.352320000E-03 5.221100000E+00 0.000000000E+00 1.951727873E+02
6.388660000E-03 5.207300000E+00 0.000000000E+00 1.940626047E+02
6.643000000E-03 5.110700000E+00 0.000000000E+00 1.866325455E+02
6.659350000E-03 5.104400000E+00 0.000000000E+00 1.861743263E+02
6.667530000E-03 5.101300000E+00 0.000000000E+00 1.859459200E+02
6.675700000E-03 5.098200000E+00 0.000000000E+00 1.857183516E+02
6.685920000E-03 5.094300000E+00 0.000000000E+00 1.854344653E+02
6.688990000E-03 5.093200000E+00 0.000000000E+00 1.853493577E+02
6.692050000E-03 5.092000000E+00 0.000000000E+00 1.852646050E+02
6.700230000E-03 5.088900000E+00 0.000000000E+00 1.850384241E+02
6.708400000E-03 5.085800000E+00 0.000000000E+00 1.848130702E+02
6.716580000E-03 5.082700000E+00 0.000000000E+00 1.845879897E+02
6.724760000E-03 5.079600000E+00 0.000000000E+00 1.843634568E+02
6.731300000E-03 5.077100000E+00 0.000000000E+00 1.841843329E+02
6.734570000E-03 5.075900000E+00 0.000000000E+00 1.840949014E+02
6.737850000E-03 5.074600000E+00 0.000000000E+00 1.840052836E+02
6.755970000E-03 5.067700000E+00 0.000000000E+00 1.835117681E+02
6.771270000E-03 5.061900000E+00 0.000000000E+00 1.830971147E+02
6.789230000E-03 5.055100000E+00 0.000000000E+00 1.826127558E+02
6.805860000E-03 5.048800000E+00 0.000000000E+00 1.821665447E+02
6.822860000E-03 5.042300000E+00 0.000000000E+00 1.817126542E+02
6.828570000E-03 5.040100000E+00 0.000000000E+00 1.815607074E+02
6.837140000E-03 5.036900000E+00 0.000000000E+00 1.813331305E+02
6.845710000E-03 5.033600000E+00 0.000000000E+00 1.811061234E+02
6.852370000E-03 5.031100000E+00 0.000000000E+00 1.809301016E+02
6.862370000E-03 5.027300000E+00 0.000000000E+00 1.806664461E+02
6.867370000E-03 5.025400000E+00 0.000000000E+00 1.805349064E+02
6.872370000E-03 5.023500000E+00 0.000000000E+00 1.804035580E+02
6.880690000E-03 5.020300000E+00 0.000000000E+00 1.801854175E+02
6.884840000E-03 5.018700000E+00 0.000000000E+00 1.800768064E+02
6.886920000E-03 5.018000000E+00 0.000000000E+00 1.800224193E+02
6.888480000E-03 5.017400000E+00 0.000000000E+00 1.799816505E+02
6.889130000E-03 5.017100000E+00 0.000000000E+00 1.799646690E+02
6.889390000E-03 5.017000000E+00 0.000000000E+00 1.799578773E+02
6.890880000E-03 5.016500000E+00 0.000000000E+00 1.799189654E+02
6.898250000E-03 5.013700000E+00 0.000000000E+00 1.797267423E+02
6.901940000E-03 5.012300000E+00 0.000000000E+00 1.796306546E+02
6.903790000E-03 5.011600000E+00 0.000000000E+00 1.795825192E+02
6.905630000E-03 5.010900000E+00 0.000000000E+00 1.795346695E+02
6.922260000E-03 5.004500000E+00 0.000000000E+00 1.791033564E+02
6.930570000E-03 5.001400000E+00 0.000000000E+00 1.788886051E+02
6.938890000E-03 4.998200000E+00 0.000000000E+00 1.786741107E+02
6.947200000E-03 4.995100000E+00 0.000000000E+00 1.784603869E+02
6.963830000E-03 4.988700000E+00 0.000000000E+00 1.780342139E+02
6.976300000E-03 4.984000000E+00 0.000000000E+00 1.777159813E+02
6.988780000E-03 4.979300000E+00 0.000000000E+00 1.773986304E+02
7.005400000E-03 4.972900000E+00 0.000000000E+00 1.769777600E+02
7.021270000E-03 4.966900000E+00 0.000000000E+00 1.765777416E+02
7.036360000E-03 4.960500000E+00 0.000000000E+00 1.761990575E+02
7.038660000E-03 4.959500000E+00 0.000000000E+00 1.761414815E+02
7.055290000E-03 4.952000000E+00 0.000000000E+00 1.757262990E+02
7.069530000E-03 4.945600000E+00 0.000000000E+00 1.753723373E+02
7.088550000E-03 4.937000000E+00 0.000000000E+00 1.749017782E+02
7.104610000E-03 4.929800000E+00 0.000000000E+00 1.745064120E+02
7.112680000E-03 4.926200000E+00 0.000000000E+00 1.743084182E+02
7.131010000E-03 4.917900000E+00 0.000000000E+00 1.738603648E+02
7.148310000E-03 4.910100000E+00 0.000000000E+00 1.734395962E+02
7.165610000E-03 4.902300000E+00 0.000000000E+00 1.730208594E+02
7.182900000E-03 4.894500000E+00 0.000000000E+00 1.726043798E+02
7.200200000E-03 4.886800000E+00 0.000000000E+00 1.721896614E+02
7.218210000E-03 4.878600000E+00 0.000000000E+00 1.717600347E+02
7.235980000E-03 4.870600000E+00 0.000000000E+00 1.713382292E+02
7.253750000E-03 4.862600000E+00 0.000000000E+00 1.709184904E+02
7.271510000E-03 4.854600000E+00 0.000000000E+00 1.705010376E+02
7.289280000E-03 4.846600000E+00 0.000000000E+00 1.700853857E+02
7.307050000E-03 4.838600000E+00 0.000000000E+00 1.696717554E+02
7.338570000E-03 4.824400000E+00 0.000000000E+00 1.689429957E+02
7.362550000E-03 4.813700000E+00 0.000000000E+00 1.683927444E+02
7.380630000E-03 4.805500000E+00 0.000000000E+00 1.679802402E+02
7.398710000E-03 4.797400000E+00 0.000000000E+00 1.675697520E+02
7.416790000E-03 4.789200000E+00 0.000000000E+00 1.671612652E+02
7.439600000E-03 4.779000000E+00 0.000000000E+00 1.666487446E+02
7.462420000E-03 4.768700000E+00 0.000000000E+00 1.661391345E+02
7.484710000E-03 4.758600000E+00 0.000000000E+00 1.656443603E+02
7.507170000E-03 4.748500000E+00 0.000000000E+00 1.651487844E+02
7.525250000E-03 4.740400000E+00 0.000000000E+00 1.647520016E+02
7.543330000E-03 4.732000000E+00 0.000000000E+00 1.643571208E+02
