# Data retrieved from https://www-nds.iaea.org/epdl97/za1to100.htm 03/01/2021
# Element, Pt  (Z = 78) 
# Atomic weight, g mol-1 = 195.09 
# Nominal density, g cm-3 =  2.14500E+1 
# Relativistic correction estimate f_rel(5CL)*,  e atom-1 =  0 
# Nuclear Thomson correction f_NT*, e atom-1 =  0 
#    E [keV]      f1 [e atom-1]      f2 [e atom-1]    Wavelength [nm] 
1.000000000E-03 3.111400000E+00 0.000000000E+00 1.239800000E+03
1.143370000E-03 3.102700000E+00 0.000000000E+00 1.084338403E+03
1.358430000E-03 3.089600000E+00 0.000000000E+00 9.126712455E+02
1.573490000E-03 3.076500000E+00 0.000000000E+00 7.879300154E+02
1.577360000E-03 3.076300000E+00 0.000000000E+00 7.859968555E+02
1.581240000E-03 3.076100000E+00 0.000000000E+00 7.840681996E+02
1.585110000E-03 3.075800000E+00 0.000000000E+00 7.821539199E+02
1.588980000E-03 3.075600000E+00 0.000000000E+00 7.802489647E+02
1.592860000E-03 3.075300000E+00 0.000000000E+00 7.783483796E+02
1.596730000E-03 3.075100000E+00 0.000000000E+00 7.764618940E+02
1.600600000E-03 3.074900000E+00 0.000000000E+00 7.745845308E+02
1.604470000E-03 3.074600000E+00 0.000000000E+00 7.727162240E+02
1.608350000E-03 3.074400000E+00 0.000000000E+00 7.708521155E+02
1.612220000E-03 3.074200000E+00 0.000000000E+00 7.690017491E+02
1.616090000E-03 3.073900000E+00 0.000000000E+00 7.671602448E+02
1.619970000E-03 3.073700000E+00 0.000000000E+00 7.653228146E+02
1.623840000E-03 3.073500000E+00 0.000000000E+00 7.634988669E+02
1.631580000E-03 3.073000000E+00 0.000000000E+00 7.598769291E+02
1.635460000E-03 3.072800000E+00 0.000000000E+00 7.580741810E+02
1.639330000E-03 3.072500000E+00 0.000000000E+00 7.562845797E+02
1.643200000E-03 3.072300000E+00 0.000000000E+00 7.545034080E+02
1.647080000E-03 3.072100000E+00 0.000000000E+00 7.527260364E+02
1.650950000E-03 3.071800000E+00 0.000000000E+00 7.509615676E+02
1.857320000E-03 3.059300000E+00 0.000000000E+00 6.675209442E+02
2.000000000E-03 3.050600000E+00 0.000000000E+00 6.199000000E+02
2.089480000E-03 3.039100000E+00 0.000000000E+00 5.933533702E+02
2.350670000E-03 3.005500000E+00 0.000000000E+00 5.274240961E+02
2.644500000E-03 2.967700000E+00 0.000000000E+00 4.688220836E+02
2.922880000E-03 2.931900000E+00 0.000000000E+00 4.241706810E+02
3.166460000E-03 2.900600000E+00 0.000000000E+00 3.915413427E+02
3.379590000E-03 2.873200000E+00 0.000000000E+00 3.668492332E+02
3.566080000E-03 2.849200000E+00 0.000000000E+00 3.476646626E+02
3.729260000E-03 2.828200000E+00 0.000000000E+00 3.324520146E+02
3.872050000E-03 2.809800000E+00 0.000000000E+00 3.201921463E+02
4.000000000E-03 2.793400000E+00 0.000000000E+00 3.099500000E+02
4.106300000E-03 2.767000000E+00 0.000000000E+00 3.019263084E+02
4.201950000E-03 2.743200000E+00 0.000000000E+00 2.950534871E+02
4.285650000E-03 2.722500000E+00 0.000000000E+00 2.892910060E+02
4.358880000E-03 2.704300000E+00 0.000000000E+00 2.844308630E+02
4.487040000E-03 2.672500000E+00 0.000000000E+00 2.763068749E+02
4.583160000E-03 2.648600000E+00 0.000000000E+00 2.705120485E+02
4.655250000E-03 2.630700000E+00 0.000000000E+00 2.663229687E+02
4.709320000E-03 2.617300000E+00 0.000000000E+00 2.632651848E+02
4.749870000E-03 2.607200000E+00 0.000000000E+00 2.610176700E+02
4.780280000E-03 2.599700000E+00 0.000000000E+00 2.593571925E+02
4.803090000E-03 2.594000000E+00 0.000000000E+00 2.581254984E+02
4.820200000E-03 2.589800000E+00 0.000000000E+00 2.572092444E+02
4.845860000E-03 2.583400000E+00 0.000000000E+00 2.558472593E+02
4.858690000E-03 2.580200000E+00 0.000000000E+00 2.551716615E+02
4.865110000E-03 2.578600000E+00 0.000000000E+00 2.548349369E+02
4.871520000E-03 2.577000000E+00 0.000000000E+00 2.544996223E+02
4.883510000E-03 2.574100000E+00 0.000000000E+00 2.538747745E+02
4.895500000E-03 2.571100000E+00 0.000000000E+00 2.532529874E+02
4.907500000E-03 2.568100000E+00 0.000000000E+00 2.526337239E+02
4.919490000E-03 2.565100000E+00 0.000000000E+00 2.520179937E+02
4.931480000E-03 2.562100000E+00 0.000000000E+00 2.514052577E+02
4.943470000E-03 2.559200000E+00 0.000000000E+00 2.507954939E+02
4.949460000E-03 2.557700000E+00 0.000000000E+00 2.504919729E+02
4.955460000E-03 2.556200000E+00 0.000000000E+00 2.501886808E+02
4.961450000E-03 2.554700000E+00 0.000000000E+00 2.498866259E+02
4.967450000E-03 2.553200000E+00 0.000000000E+00 2.495847970E+02
4.976440000E-03 2.551000000E+00 0.000000000E+00 2.491339190E+02
4.979440000E-03 2.550200000E+00 0.000000000E+00 2.489838215E+02
4.989930000E-03 2.547600000E+00 0.000000000E+00 2.484603992E+02
4.992180000E-03 2.547100000E+00 0.000000000E+00 2.483484169E+02
4.993580000E-03 2.546700000E+00 0.000000000E+00 2.482787900E+02
4.996040000E-03 2.546100000E+00 0.000000000E+00 2.481565400E+02
4.997890000E-03 2.545700000E+00 0.000000000E+00 2.480646833E+02
5.000650000E-03 2.545000000E+00 0.000000000E+00 2.479277694E+02
5.002730000E-03 2.544500000E+00 0.000000000E+00 2.478246877E+02
5.004920000E-03 2.543900000E+00 0.000000000E+00 2.477162472E+02
5.007540000E-03 2.543300000E+00 0.000000000E+00 2.475866393E+02
5.018410000E-03 2.540600000E+00 0.000000000E+00 2.470503606E+02
5.027400000E-03 2.538300000E+00 0.000000000E+00 2.466085850E+02
5.033400000E-03 2.536800000E+00 0.000000000E+00 2.463146183E+02
5.039390000E-03 2.535400000E+00 0.000000000E+00 2.460218399E+02
5.045390000E-03 2.533900000E+00 0.000000000E+00 2.457292697E+02
5.051380000E-03 2.532400000E+00 0.000000000E+00 2.454378803E+02
5.063370000E-03 2.529400000E+00 0.000000000E+00 2.448566864E+02
5.075360000E-03 2.526400000E+00 0.000000000E+00 2.442782384E+02
5.087360000E-03 2.523500000E+00 0.000000000E+00 2.437020380E+02
5.105340000E-03 2.519000000E+00 0.000000000E+00 2.428437675E+02
5.111340000E-03 2.517500000E+00 0.000000000E+00 2.425587028E+02
5.113750000E-03 2.516900000E+00 0.000000000E+00 2.424443901E+02
5.118530000E-03 2.515700000E+00 0.000000000E+00 2.422179806E+02
5.127940000E-03 2.513400000E+00 0.000000000E+00 2.417734997E+02
5.137060000E-03 2.511100000E+00 0.000000000E+00 2.413442708E+02
5.145900000E-03 2.508900000E+00 0.000000000E+00 2.409296722E+02
5.154460000E-03 2.506800000E+00 0.000000000E+00 2.405295608E+02
5.162750000E-03 2.504700000E+00 0.000000000E+00 2.401433345E+02
5.170780000E-03 2.502700000E+00 0.000000000E+00 2.397704021E+02
5.178570000E-03 2.500800000E+00 0.000000000E+00 2.394097212E+02
5.299190000E-03 2.470900000E+00 0.000000000E+00 2.339602845E+02
5.329340000E-03 2.463400000E+00 0.000000000E+00 2.326366867E+02
5.351960000E-03 2.457800000E+00 0.000000000E+00 2.316534503E+02
5.368920000E-03 2.453600000E+00 0.000000000E+00 2.309216751E+02
5.381640000E-03 2.450400000E+00 0.000000000E+00 2.303758706E+02
5.400730000E-03 2.445700000E+00 0.000000000E+00 2.295615593E+02
5.415040000E-03 2.442100000E+00 0.000000000E+00 2.289549108E+02
5.419810000E-03 2.440900000E+00 0.000000000E+00 2.287534065E+02
5.426480000E-03 2.439300000E+00 0.000000000E+00 2.284722325E+02
5.446490000E-03 2.434300000E+00 0.000000000E+00 2.276328424E+02
5.459830000E-03 2.431000000E+00 0.000000000E+00 2.270766672E+02
5.473170000E-03 2.427700000E+00 0.000000000E+00 2.265232032E+02
5.486510000E-03 2.424400000E+00 0.000000000E+00 2.259724306E+02
5.493180000E-03 2.422700000E+00 0.000000000E+00 2.256980474E+02
5.499850000E-03 2.421100000E+00 0.000000000E+00 2.254243298E+02
5.506520000E-03 2.419400000E+00 0.000000000E+00 2.251512752E+02
5.513190000E-03 2.417800000E+00 0.000000000E+00 2.248788814E+02
5.519860000E-03 2.416100000E+00 0.000000000E+00 2.246071458E+02
5.526530000E-03 2.414400000E+00 0.000000000E+00 2.243360662E+02
5.536530000E-03 2.412000000E+00 0.000000000E+00 2.239308737E+02
5.541540000E-03 2.410700000E+00 0.000000000E+00 2.237284221E+02
5.547370000E-03 2.409300000E+00 0.000000000E+00 2.234932950E+02
5.550290000E-03 2.408500000E+00 0.000000000E+00 2.233757155E+02
5.551020000E-03 2.408400000E+00 0.000000000E+00 2.233463400E+02
5.551570000E-03 2.408200000E+00 0.000000000E+00 2.233242128E+02
5.551980000E-03 2.408100000E+00 0.000000000E+00 2.233077208E+02
5.552590000E-03 2.408000000E+00 0.000000000E+00 2.232831886E+02
5.552900000E-03 2.407900000E+00 0.000000000E+00 2.232707234E+02
5.553630000E-03 2.407700000E+00 0.000000000E+00 2.232413755E+02
5.566550000E-03 2.404500000E+00 0.000000000E+00 2.227232307E+02
5.569890000E-03 2.403700000E+00 0.000000000E+00 2.225896741E+02
5.579890000E-03 2.401200000E+00 0.000000000E+00 2.221907600E+02
5.586560000E-03 2.399500000E+00 0.000000000E+00 2.219254783E+02
5.593230000E-03 2.397900000E+00 0.000000000E+00 2.216608293E+02
5.599900000E-03 2.396200000E+00 0.000000000E+00 2.213968107E+02
5.606570000E-03 2.394600000E+00 0.000000000E+00 2.211334203E+02
5.613240000E-03 2.392900000E+00 0.000000000E+00 2.208706558E+02
5.619910000E-03 2.391300000E+00 0.000000000E+00 2.206085151E+02
5.633250000E-03 2.388000000E+00 0.000000000E+00 2.200860959E+02
5.646590000E-03 2.384600000E+00 0.000000000E+00 2.195661452E+02
5.659930000E-03 2.381300000E+00 0.000000000E+00 2.190486455E+02
5.673270000E-03 2.378000000E+00 0.000000000E+00 2.185335794E+02
5.686610000E-03 2.374700000E+00 0.000000000E+00 2.180209299E+02
5.692270000E-03 2.373300000E+00 0.000000000E+00 2.178041449E+02
5.703480000E-03 2.370500000E+00 0.000000000E+00 2.173760581E+02
5.725570000E-03 2.365000000E+00 0.000000000E+00 2.165373928E+02
5.746970000E-03 2.359700000E+00 0.000000000E+00 2.157310722E+02
5.767700000E-03 2.354600000E+00 0.000000000E+00 2.149557016E+02
5.807860000E-03 2.344600000E+00 0.000000000E+00 2.134693329E+02
5.845510000E-03 2.335300000E+00 0.000000000E+00 2.120944109E+02
5.880800000E-03 2.326300000E+00 0.000000000E+00 2.108216569E+02
5.946980000E-03 2.308200000E+00 0.000000000E+00 2.084755624E+02
6.004890000E-03 2.291600000E+00 0.000000000E+00 2.064650643E+02
6.106240000E-03 2.247000000E+00 0.000000000E+00 2.030382035E+02
6.182240000E-03 2.213500000E+00 0.000000000E+00 2.005421983E+02
6.296250000E-03 2.163300000E+00 0.000000000E+00 1.969108596E+02
6.410260000E-03 2.113200000E+00 0.000000000E+00 1.934086917E+02
6.426040000E-03 2.106200000E+00 0.000000000E+00 1.929337508E+02
6.441820000E-03 2.099300000E+00 0.000000000E+00 1.924611368E+02
6.457590000E-03 2.092400000E+00 0.000000000E+00 1.919911298E+02
6.473370000E-03 2.085400000E+00 0.000000000E+00 1.915231170E+02
6.489150000E-03 2.078500000E+00 0.000000000E+00 1.910573804E+02
6.504930000E-03 2.071500000E+00 0.000000000E+00 1.905939034E+02
6.520710000E-03 2.064600000E+00 0.000000000E+00 1.901326696E+02
6.536480000E-03 2.057600000E+00 0.000000000E+00 1.896739530E+02
6.552260000E-03 2.050700000E+00 0.000000000E+00 1.892171556E+02
6.568040000E-03 2.043800000E+00 0.000000000E+00 1.887625532E+02
6.583820000E-03 2.036800000E+00 0.000000000E+00 1.883101300E+02
6.599600000E-03 2.029900000E+00 0.000000000E+00 1.878598703E+02
6.615370000E-03 2.022900000E+00 0.000000000E+00 1.874120420E+02
6.646930000E-03 2.009000000E+00 0.000000000E+00 1.865221990E+02
6.662710000E-03 2.002100000E+00 0.000000000E+00 1.860804387E+02
6.678490000E-03 1.995200000E+00 0.000000000E+00 1.856407661E+02
6.694260000E-03 1.988200000E+00 0.000000000E+00 1.852034429E+02
6.710040000E-03 1.981300000E+00 0.000000000E+00 1.847679000E+02
6.725820000E-03 1.974300000E+00 0.000000000E+00 1.843344009E+02
6.963880000E-03 1.862900000E+00 0.000000000E+00 1.780329357E+02
7.023400000E-03 1.834100000E+00 0.000000000E+00 1.765241906E+02
7.112670000E-03 1.790900000E+00 0.000000000E+00 1.743086633E+02
7.157310000E-03 1.769300000E+00 0.000000000E+00 1.732215036E+02
7.179630000E-03 1.758500000E+00 0.000000000E+00 1.726829934E+02
7.190780000E-03 1.753100000E+00 0.000000000E+00 1.724152317E+02
7.201940000E-03 1.747700000E+00 0.000000000E+00 1.721480601E+02
7.232960000E-03 1.732700000E+00 0.000000000E+00 1.714097686E+02
7.237400000E-03 1.730600000E+00 0.000000000E+00 1.713046122E+02
7.251850000E-03 1.723600000E+00 0.000000000E+00 1.709632714E+02
7.255120000E-03 1.722000000E+00 0.000000000E+00 1.708862155E+02
7.272850000E-03 1.713400000E+00 0.000000000E+00 1.704696233E+02
7.290580000E-03 1.704200000E+00 0.000000000E+00 1.700550573E+02
7.318500000E-03 1.689000000E+00 0.000000000E+00 1.694062991E+02
7.323600000E-03 1.686200000E+00 0.000000000E+00 1.692883281E+02
7.328690000E-03 1.683400000E+00 0.000000000E+00 1.691707522E+02
7.333200000E-03 1.680900000E+00 0.000000000E+00 1.690667103E+02
7.339970000E-03 1.677300000E+00 0.000000000E+00 1.689107721E+02
7.346730000E-03 1.673600000E+00 0.000000000E+00 1.687553510E+02
7.364770000E-03 1.663800000E+00 0.000000000E+00 1.683419849E+02
7.382810000E-03 1.653900000E+00 0.000000000E+00 1.679306389E+02
7.400850000E-03 1.644100000E+00 0.000000000E+00 1.675212982E+02
7.418890000E-03 1.634300000E+00 0.000000000E+00 1.671139483E+02
7.425650000E-03 1.630600000E+00 0.000000000E+00 1.669618148E+02
7.437490000E-03 1.624200000E+00 0.000000000E+00 1.666960224E+02
7.446370000E-03 1.619400000E+00 0.000000000E+00 1.664972329E+02
7.453030000E-03 1.615700000E+00 0.000000000E+00 1.663484516E+02
7.458020000E-03 1.613000000E+00 0.000000000E+00 1.662371514E+02
7.465510000E-03 1.608900000E+00 0.000000000E+00 1.660703689E+02
7.471130000E-03 1.605900000E+00 0.000000000E+00 1.659454460E+02
7.479200000E-03 1.601500000E+00 0.000000000E+00 1.657663921E+02
7.482160000E-03 1.599900000E+00 0.000000000E+00 1.657008137E+02
7.489580000E-03 1.595800000E+00 0.000000000E+00 1.655366523E+02
7.493300000E-03 1.593800000E+00 0.000000000E+00 1.654544727E+02
7.505130000E-03 1.587400000E+00 0.000000000E+00 1.651936742E+02
7.509080000E-03 1.585200000E+00 0.000000000E+00 1.651067774E+02
7.527120000E-03 1.573800000E+00 0.000000000E+00 1.647110714E+02
7.536140000E-03 1.567900000E+00 0.000000000E+00 1.645139289E+02
7.545160000E-03 1.562000000E+00 0.000000000E+00 1.643172577E+02
7.558690000E-03 1.553200000E+00 0.000000000E+00 1.640231310E+02
7.579200000E-03 1.539800000E+00 0.000000000E+00 1.635792696E+02
7.589130000E-03 1.531700000E+00 0.000000000E+00 1.633652342E+02
7.599270000E-03 1.523500000E+00 0.000000000E+00 1.631472497E+02
7.617310000E-03 1.508900000E+00 0.000000000E+00 1.627608697E+02
7.635350000E-03 1.494200000E+00 0.000000000E+00 1.623763154E+02
7.653390000E-03 1.479600000E+00 0.000000000E+00 1.619935741E+02
7.679350000E-03 1.458600000E+00 0.000000000E+00 1.614459557E+02
7.689470000E-03 1.450400000E+00 0.000000000E+00 1.612334790E+02
7.702510000E-03 1.439800000E+00 0.000000000E+00 1.609605181E+02
7.715550000E-03 1.429200000E+00 0.000000000E+00 1.606884798E+02
7.722440000E-03 1.423600000E+00 0.000000000E+00 1.605451127E+02
7.738960000E-03 1.410200000E+00 0.000000000E+00 1.602024045E+02
7.747200000E-03 1.403600000E+00 0.000000000E+00 1.600320116E+02
7.747520000E-03 1.403300000E+00 2.008470000E-07 1.600254017E+02
7.750340000E-03 1.400700000E+00 2.527800000E-07 1.599671756E+02
7.753140000E-03 1.398100000E+00 3.166300000E-07 1.599094044E+02
7.755910000E-03 1.395500000E+00 3.948200000E-07 1.598522933E+02
7.759570000E-03 1.392000000E+00 5.263690000E-07 1.597768949E+02
7.763190000E-03 1.388600000E+00 6.966510000E-07 1.597023904E+02
7.766470000E-03 1.385500000E+00 8.953290000E-07 1.596349435E+02
7.770010000E-03 1.382100000E+00 1.169670000E-06 1.595622142E+02
7.773510000E-03 1.378800000E+00 1.518200000E-06 1.594903718E+02
7.776970000E-03 1.375400000E+00 1.958260000E-06 1.594194140E+02
7.780380000E-03 1.372100000E+00 2.510560000E-06 1.593495433E+02
7.783760000E-03 1.368800000E+00 3.199680000E-06 1.592803478E+02
7.787100000E-03 1.365500000E+00 4.054640000E-06 1.592120302E+02
7.790400000E-03 1.362200000E+00 5.109460000E-06 1.591445882E+02
7.793660000E-03 1.358900000E+00 6.403830000E-06 1.590780198E+02
7.796880000E-03 1.355700000E+00 7.983770000E-06 1.590123229E+02
7.801120000E-03 1.351400000E+00 1.062750000E-05 1.589258978E+02
7.805290000E-03 1.347100000E+00 1.402200000E-05 1.588409912E+02
7.809400000E-03 1.342800000E+00 1.834320000E-05 1.587573949E+02
7.813140000E-03 1.338900000E+00 2.335290000E-05 1.586814008E+02
7.817430000E-03 1.334400000E+00 3.063100000E-05 1.585943206E+02
7.821830000E-03 1.329700000E+00 4.031490000E-05 1.585051069E+02
7.826160000E-03 1.325000000E+00 5.256280000E-05 1.584174103E+02
7.830410000E-03 1.320300000E+00 6.791270000E-05 1.583314284E+02
7.834590000E-03 1.315600000E+00 8.698180000E-05 1.582469536E+02
7.838700000E-03 1.311000000E+00 1.104710000E-04 1.581639813E+02
7.842730000E-03 1.306400000E+00 1.391700000E-04 1.580827084E+02
7.846700000E-03 1.301800000E+00 1.739580000E-04 1.580027273E+02
7.851870000E-03 1.295700000E+00 2.315240000E-04 1.578986916E+02
7.856940000E-03 1.289700000E+00 3.042990000E-04 1.577968013E+02
7.861880000E-03 1.283600000E+00 3.951140000E-04 1.576976499E+02
7.866710000E-03 1.277600000E+00 5.071230000E-04 1.576008268E+02
7.871430000E-03 1.271600000E+00 6.437450000E-04 1.575063235E+02
7.876040000E-03 1.265600000E+00 8.086320000E-04 1.574141320E+02
7.882020000E-03 1.257600000E+00 1.079130000E-03 1.572947036E+02
7.887330000E-03 1.250400000E+00 1.386240000E-03 1.571888079E+02
7.892740000E-03 1.242800000E+00 1.773740000E-03 1.570810644E+02
7.898870000E-03 1.233900000E+00 2.330050000E-03 1.569591600E+02
7.904800000E-03 1.225100000E+00 3.008010000E-03 1.568414128E+02
7.910510000E-03 1.216300000E+00 3.820810000E-03 1.567282008E+02
7.917840000E-03 1.204700000E+00 5.135980000E-03 1.565831085E+02
7.924300000E-03 1.194000000E+00 6.609100000E-03 1.564554598E+02
7.933660000E-03 1.178000000E+00 9.355490000E-03 1.562708762E+02
7.944930000E-03 1.157700000E+00 1.388310000E-02 1.560492037E+02
7.956160000E-03 1.136500000E+00 2.004340000E-02 1.558289426E+02
7.963930000E-03 1.121300000E+00 2.544940000E-02 1.556769083E+02
7.974640000E-03 1.100100000E+00 3.471090000E-02 1.554678330E+02
7.982820000E-03 1.083700000E+00 4.329730000E-02 1.553085251E+02
8.005110000E-03 1.040200000E+00 7.419660000E-02 1.548760729E+02
8.013900000E-03 1.024200000E+00 8.950270000E-02 1.547061980E+02
8.018750000E-03 1.015700000E+00 9.859850000E-02 1.546126267E+02
8.033530000E-03 9.929000000E-01 1.294760000E-01 1.543281720E+02
8.053160000E-03 9.708000000E-01 1.757960000E-01 1.539519890E+02
8.072790000E-03 9.622000000E-01 2.250160000E-01 1.535776355E+02
8.083220000E-03 9.577000000E-01 2.511700000E-01 1.533794701E+02
8.092250000E-03 9.593000000E-01 2.729060000E-01 1.532083166E+02
8.124980000E-03 9.799000000E-01 3.415140000E-01 1.525911448E+02
8.144600000E-03 1.000600000E+00 3.717210000E-01 1.522235592E+02
8.165510000E-03 1.024700000E+00 3.943160000E-01 1.518337495E+02
8.178150000E-03 1.038900000E+00 4.036550000E-01 1.515990780E+02
8.185490000E-03 1.046500000E+00 4.073530000E-01 1.514631378E+02
8.196570000E-03 1.057900000E+00 4.123510000E-01 1.512583922E+02
8.213190000E-03 1.072800000E+00 4.163440000E-01 1.509523096E+02
8.221500000E-03 1.079500000E+00 4.176570000E-01 1.507997324E+02
8.229820000E-03 1.085500000E+00 4.181680000E-01 1.506472803E+02
8.238170000E-03 1.090900000E+00 4.183050000E-01 1.504945880E+02
8.242350000E-03 1.093200000E+00 4.181460000E-01 1.504182666E+02
8.246530000E-03 1.095500000E+00 4.179870000E-01 1.503420226E+02
8.255340000E-03 1.100300000E+00 4.176520000E-01 1.501815794E+02
8.259870000E-03 1.102800000E+00 4.174790000E-01 1.500992146E+02
8.263040000E-03 1.103700000E+00 4.171090000E-01 1.500416312E+02
8.265640000E-03 1.104500000E+00 4.168060000E-01 1.499944348E+02
8.266210000E-03 1.104700000E+00 4.167390000E-01 1.499840919E+02
8.276350000E-03 1.107800000E+00 4.155570000E-01 1.498003347E+02
8.280080000E-03 1.108900000E+00 4.151220000E-01 1.497328528E+02
8.283810000E-03 1.110000000E+00 4.146880000E-01 1.496654317E+02
8.303470000E-03 1.114700000E+00 4.123950000E-01 1.493110712E+02
8.313300000E-03 1.116500000E+00 4.112240000E-01 1.491345194E+02
8.323130000E-03 1.116100000E+00 4.099060000E-01 1.489583846E+02
8.336990000E-03 1.115600000E+00 4.080490000E-01 1.487107457E+02
