# Data retrieved from https://www-nds.iaea.org/epdl97/za1to100.htm 03/01/2021
# Element, Ra  (Z = 88) 
# Atomic weight, g mol-1 = 226.0 
# Nominal density, g cm-3 =  5.00000E+0 
# Relativistic correction estimate f_rel(5CL)*,  e atom-1 =  0 
# Nuclear Thomson correction f_NT*, e atom-1 =  0 
#    E [keV]      f1 [e atom-1]      f2 [e atom-1]    Wavelength [nm] 
1.000000000E-03 1.664810000E+01 0.000000000E+00 1.239800000E+03
1.108480000E-03 1.664510000E+01 0.000000000E+00 1.118468533E+03
1.189840000E-03 1.664290000E+01 0.000000000E+00 1.041988839E+03
1.250860000E-03 1.664130000E+01 0.000000000E+00 9.911580832E+02
1.342390000E-03 1.663880000E+01 0.000000000E+00 9.235766059E+02
1.433920000E-03 1.663630000E+01 0.000000000E+00 8.646228520E+02
1.437450000E-03 1.663630000E+01 0.000000000E+00 8.624995652E+02
1.440970000E-03 1.663620000E+01 0.000000000E+00 8.603926522E+02
1.444500000E-03 1.663610000E+01 0.000000000E+00 8.582900658E+02
1.448030000E-03 1.663600000E+01 0.000000000E+00 8.561977307E+02
1.451560000E-03 1.663590000E+01 0.000000000E+00 8.541155722E+02
1.455090000E-03 1.663580000E+01 0.000000000E+00 8.520435162E+02
1.458620000E-03 1.663570000E+01 0.000000000E+00 8.499814894E+02
1.462150000E-03 1.663560000E+01 0.000000000E+00 8.479294190E+02
1.465680000E-03 1.663550000E+01 0.000000000E+00 8.458872332E+02
1.469210000E-03 1.663540000E+01 0.000000000E+00 8.438548608E+02
1.472740000E-03 1.663530000E+01 0.000000000E+00 8.418322311E+02
1.476270000E-03 1.663520000E+01 0.000000000E+00 8.398192743E+02
1.479800000E-03 1.663510000E+01 0.000000000E+00 8.378159211E+02
1.486860000E-03 1.663490000E+01 0.000000000E+00 8.338377520E+02
1.490390000E-03 1.663480000E+01 0.000000000E+00 8.318628010E+02
1.493920000E-03 1.663470000E+01 0.000000000E+00 8.298971832E+02
1.497450000E-03 1.663460000E+01 0.000000000E+00 8.279408327E+02
1.500970000E-03 1.663450000E+01 0.000000000E+00 8.259991872E+02
1.504500000E-03 1.663440000E+01 0.000000000E+00 8.240611499E+02
1.567250000E-03 1.663270000E+01 0.000000000E+00 7.910671558E+02
1.614300000E-03 1.663150000E+01 0.000000000E+00 7.680109026E+02
1.649590000E-03 1.663050000E+01 0.000000000E+00 7.515806958E+02
1.702530000E-03 1.662910000E+01 0.000000000E+00 7.282103693E+02
1.755470000E-03 1.662760000E+01 0.000000000E+00 7.062496084E+02
1.759790000E-03 1.662750000E+01 0.000000000E+00 7.045158797E+02
1.764110000E-03 1.662740000E+01 0.000000000E+00 7.027906423E+02
1.768430000E-03 1.662730000E+01 0.000000000E+00 7.010738339E+02
1.772750000E-03 1.662720000E+01 0.000000000E+00 6.993653928E+02
1.777080000E-03 1.662710000E+01 0.000000000E+00 6.976613321E+02
1.781400000E-03 1.662690000E+01 0.000000000E+00 6.959694622E+02
1.785720000E-03 1.662680000E+01 0.000000000E+00 6.942857783E+02
1.790040000E-03 1.662670000E+01 0.000000000E+00 6.926102210E+02
1.794360000E-03 1.662660000E+01 0.000000000E+00 6.909427317E+02
1.798680000E-03 1.662650000E+01 0.000000000E+00 6.892832522E+02
1.803000000E-03 1.662640000E+01 0.000000000E+00 6.876317249E+02
1.807320000E-03 1.662620000E+01 0.000000000E+00 6.859880929E+02
1.811640000E-03 1.662610000E+01 0.000000000E+00 6.843522996E+02
1.820280000E-03 1.662590000E+01 0.000000000E+00 6.811040060E+02
1.824610000E-03 1.662580000E+01 0.000000000E+00 6.794876713E+02
1.828930000E-03 1.662570000E+01 0.000000000E+00 6.778826964E+02
1.833250000E-03 1.662550000E+01 0.000000000E+00 6.762852857E+02
1.837570000E-03 1.662540000E+01 0.000000000E+00 6.746953858E+02
1.841890000E-03 1.662530000E+01 0.000000000E+00 6.731129438E+02
1.864110000E-03 1.662470000E+01 0.000000000E+00 6.650895065E+02
1.880780000E-03 1.662430000E+01 0.000000000E+00 6.591945895E+02
1.893280000E-03 1.662390000E+01 0.000000000E+00 6.548423899E+02
1.902660000E-03 1.662370000E+01 0.000000000E+00 6.516140561E+02
1.909690000E-03 1.662350000E+01 0.000000000E+00 6.492153177E+02
1.920240000E-03 1.662320000E+01 0.000000000E+00 6.456484606E+02
1.925510000E-03 1.662300000E+01 0.000000000E+00 6.438813613E+02
1.928150000E-03 1.662300000E+01 0.000000000E+00 6.429997666E+02
1.930790000E-03 1.662290000E+01 0.000000000E+00 6.421205828E+02
1.935540000E-03 1.662280000E+01 0.000000000E+00 6.405447575E+02
1.940290000E-03 1.662260000E+01 0.000000000E+00 6.389766478E+02
1.945040000E-03 1.662250000E+01 0.000000000E+00 6.374161971E+02
1.949800000E-03 1.662240000E+01 0.000000000E+00 6.358600882E+02
1.954550000E-03 1.662230000E+01 0.000000000E+00 6.343148039E+02
1.956920000E-03 1.662220000E+01 0.000000000E+00 6.335465936E+02
1.961680000E-03 1.662210000E+01 0.000000000E+00 6.320092982E+02
1.964050000E-03 1.662200000E+01 0.000000000E+00 6.312466587E+02
1.966430000E-03 1.662190000E+01 0.000000000E+00 6.304826513E+02
1.968810000E-03 1.662190000E+01 0.000000000E+00 6.297204911E+02
1.972370000E-03 1.662180000E+01 0.000000000E+00 6.285838864E+02
1.974750000E-03 1.662170000E+01 0.000000000E+00 6.278263071E+02
1.977420000E-03 1.662160000E+01 0.000000000E+00 6.269785883E+02
1.977860000E-03 1.662160000E+01 0.000000000E+00 6.268391089E+02
1.978610000E-03 1.662160000E+01 0.000000000E+00 6.266015031E+02
1.983060000E-03 1.662150000E+01 0.000000000E+00 6.251954051E+02
1.983660000E-03 1.662150000E+01 0.000000000E+00 6.250063015E+02
1.985740000E-03 1.662140000E+01 0.000000000E+00 6.243516271E+02
1.989000000E-03 1.662130000E+01 0.000000000E+00 6.233283057E+02
1.992570000E-03 1.662120000E+01 0.000000000E+00 6.222115158E+02
1.994940000E-03 1.662120000E+01 0.000000000E+00 6.214723250E+02
1.997320000E-03 1.662110000E+01 0.000000000E+00 6.207317806E+02
2.000000000E-03 1.662100000E+01 0.000000000E+00 6.199000000E+02
2.002070000E-03 1.662090000E+01 0.000000000E+00 6.192590669E+02
2.006820000E-03 1.662060000E+01 0.000000000E+00 6.177933248E+02
2.011580000E-03 1.662040000E+01 0.000000000E+00 6.163314410E+02
2.016330000E-03 1.662010000E+01 0.000000000E+00 6.148795088E+02
2.023460000E-03 1.661970000E+01 0.000000000E+00 6.127128779E+02
2.025830000E-03 1.661950000E+01 0.000000000E+00 6.119960707E+02
2.027390000E-03 1.661940000E+01 0.000000000E+00 6.115251629E+02
2.030490000E-03 1.661930000E+01 0.000000000E+00 6.105915321E+02
2.033530000E-03 1.661910000E+01 0.000000000E+00 6.096787360E+02
2.039520000E-03 1.661870000E+01 0.000000000E+00 6.078881305E+02
2.045330000E-03 1.661840000E+01 0.000000000E+00 6.061613529E+02
2.050960000E-03 1.661810000E+01 0.000000000E+00 6.044974061E+02
2.056410000E-03 1.661770000E+01 0.000000000E+00 6.028953370E+02
2.061690000E-03 1.661740000E+01 0.000000000E+00 6.013513186E+02
2.066800000E-03 1.661710000E+01 0.000000000E+00 5.998645249E+02
2.071750000E-03 1.661690000E+01 0.000000000E+00 5.984312779E+02
2.148550000E-03 1.661240000E+01 0.000000000E+00 5.770403295E+02
2.158150000E-03 1.661180000E+01 0.000000000E+00 5.744735074E+02
2.174950000E-03 1.661080000E+01 0.000000000E+00 5.700360928E+02
2.187550000E-03 1.661010000E+01 0.000000000E+00 5.667527599E+02
2.197000000E-03 1.660960000E+01 0.000000000E+00 5.643149750E+02
2.204080000E-03 1.660920000E+01 0.000000000E+00 5.625022685E+02
2.209400000E-03 1.660880000E+01 0.000000000E+00 5.611478229E+02
2.217370000E-03 1.660840000E+01 0.000000000E+00 5.591308622E+02
2.223350000E-03 1.660800000E+01 0.000000000E+00 5.576270043E+02
2.225350000E-03 1.660790000E+01 0.000000000E+00 5.571258454E+02
2.228080000E-03 1.660780000E+01 0.000000000E+00 5.564432157E+02
2.236300000E-03 1.660730000E+01 0.000000000E+00 5.543978894E+02
2.241780000E-03 1.660700000E+01 0.000000000E+00 5.530426714E+02
2.247260000E-03 1.660660000E+01 0.000000000E+00 5.516940630E+02
2.252730000E-03 1.660630000E+01 0.000000000E+00 5.503544588E+02
2.255470000E-03 1.660620000E+01 0.000000000E+00 5.496858748E+02
2.258210000E-03 1.660600000E+01 0.000000000E+00 5.490189132E+02
2.260950000E-03 1.660580000E+01 0.000000000E+00 5.483535682E+02
2.263690000E-03 1.660570000E+01 0.000000000E+00 5.476898339E+02
2.266430000E-03 1.660550000E+01 0.000000000E+00 5.470277044E+02
2.269170000E-03 1.660540000E+01 0.000000000E+00 5.463671739E+02
2.273270000E-03 1.660510000E+01 0.000000000E+00 5.453817628E+02
2.275330000E-03 1.660500000E+01 0.000000000E+00 5.448879943E+02
2.277720000E-03 1.660490000E+01 0.000000000E+00 5.443162461E+02
2.278920000E-03 1.660480000E+01 0.000000000E+00 5.440296281E+02
2.279220000E-03 1.660480000E+01 0.000000000E+00 5.439580207E+02
2.279450000E-03 1.660480000E+01 0.000000000E+00 5.439031345E+02
2.279530000E-03 1.660480000E+01 0.000000000E+00 5.438840463E+02
2.279680000E-03 1.660480000E+01 0.000000000E+00 5.438482594E+02
2.279900000E-03 1.660470000E+01 0.000000000E+00 5.437957805E+02
2.280010000E-03 1.660470000E+01 0.000000000E+00 5.437695449E+02
2.280290000E-03 1.660470000E+01 0.000000000E+00 5.437027746E+02
2.285600000E-03 1.660440000E+01 0.000000000E+00 5.424396220E+02
2.286970000E-03 1.660430000E+01 0.000000000E+00 5.421146758E+02
2.291070000E-03 1.660410000E+01 0.000000000E+00 5.411445307E+02
2.293810000E-03 1.660390000E+01 0.000000000E+00 5.404981232E+02
2.296550000E-03 1.660380000E+01 0.000000000E+00 5.398532581E+02
2.299290000E-03 1.660360000E+01 0.000000000E+00 5.392099300E+02
2.302030000E-03 1.660350000E+01 0.000000000E+00 5.385681333E+02
2.304770000E-03 1.660330000E+01 0.000000000E+00 5.379278627E+02
2.307510000E-03 1.660310000E+01 0.000000000E+00 5.372891125E+02
2.312980000E-03 1.660280000E+01 0.000000000E+00 5.360184697E+02
2.318460000E-03 1.660250000E+01 0.000000000E+00 5.347515161E+02
2.323940000E-03 1.660220000E+01 0.000000000E+00 5.334905376E+02
2.329420000E-03 1.660190000E+01 0.000000000E+00 5.322354921E+02
2.334890000E-03 1.660150000E+01 0.000000000E+00 5.309886119E+02
2.337050000E-03 1.660140000E+01 0.000000000E+00 5.304978499E+02
2.341350000E-03 1.660120000E+01 0.000000000E+00 5.295235655E+02
2.349880000E-03 1.660070000E+01 0.000000000E+00 5.276014094E+02
2.358280000E-03 1.660020000E+01 0.000000000E+00 5.257221365E+02
2.366550000E-03 1.659970000E+01 0.000000000E+00 5.238849802E+02
2.382820000E-03 1.659870000E+01 0.000000000E+00 5.203078705E+02
2.398580000E-03 1.659780000E+01 0.000000000E+00 5.168891594E+02
2.413860000E-03 1.659690000E+01 0.000000000E+00 5.136171940E+02
2.443450000E-03 1.659520000E+01 0.000000000E+00 5.073973275E+02
2.471190000E-03 1.659360000E+01 0.000000000E+00 5.017016093E+02
2.497200000E-03 1.659210000E+01 0.000000000E+00 4.964760532E+02
2.545960000E-03 1.658930000E+01 0.000000000E+00 4.869675879E+02
2.588630000E-03 1.658680000E+01 0.000000000E+00 4.789405979E+02
2.663300000E-03 1.658240000E+01 0.000000000E+00 4.655127098E+02
2.719300000E-03 1.657920000E+01 0.000000000E+00 4.559261575E+02
2.803310000E-03 1.657430000E+01 0.000000000E+00 4.422628964E+02
2.887310000E-03 1.656940000E+01 0.000000000E+00 4.293962200E+02
2.894420000E-03 1.656900000E+01 0.000000000E+00 4.283414294E+02
2.901530000E-03 1.656860000E+01 0.000000000E+00 4.272918081E+02
2.908630000E-03 1.656810000E+01 0.000000000E+00 4.262487838E+02
2.915740000E-03 1.656770000E+01 0.000000000E+00 4.252093808E+02
2.922850000E-03 1.656730000E+01 0.000000000E+00 4.241750346E+02
2.929950000E-03 1.656690000E+01 0.000000000E+00 4.231471527E+02
2.937060000E-03 1.656650000E+01 0.000000000E+00 4.221228031E+02
2.944170000E-03 1.656610000E+01 0.000000000E+00 4.211034010E+02
2.951270000E-03 1.656570000E+01 0.000000000E+00 4.200903340E+02
2.958380000E-03 1.656520000E+01 0.000000000E+00 4.190807131E+02
2.965490000E-03 1.656480000E+01 0.000000000E+00 4.180759335E+02
2.972590000E-03 1.656440000E+01 0.000000000E+00 4.170773635E+02
2.979700000E-03 1.656400000E+01 0.000000000E+00 4.160821559E+02
2.993910000E-03 1.656320000E+01 0.000000000E+00 4.141073045E+02
3.001020000E-03 1.656270000E+01 0.000000000E+00 4.131262038E+02
3.008130000E-03 1.656210000E+01 0.000000000E+00 4.121497409E+02
3.015230000E-03 1.656140000E+01 0.000000000E+00 4.111792467E+02
3.022340000E-03 1.656070000E+01 0.000000000E+00 4.102119550E+02
3.029450000E-03 1.656000000E+01 0.000000000E+00 4.092492037E+02
3.199160000E-03 1.654380000E+01 0.000000000E+00 3.875392290E+02
3.284020000E-03 1.653580000E+01 0.000000000E+00 3.775251064E+02
3.326450000E-03 1.653170000E+01 0.000000000E+00 3.727096454E+02
3.358270000E-03 1.652870000E+01 0.000000000E+00 3.691781781E+02
3.368880000E-03 1.652770000E+01 0.000000000E+00 3.680154829E+02
3.377170000E-03 1.652690000E+01 0.000000000E+00 3.671121087E+02
3.385460000E-03 1.652610000E+01 0.000000000E+00 3.662131586E+02
3.393760000E-03 1.652530000E+01 0.000000000E+00 3.653175239E+02
3.402050000E-03 1.652450000E+01 0.000000000E+00 3.644273306E+02
3.410340000E-03 1.652370000E+01 0.000000000E+00 3.635414651E+02
3.416710000E-03 1.652310000E+01 0.000000000E+00 3.628636905E+02
3.423080000E-03 1.652250000E+01 0.000000000E+00 3.621884385E+02
3.429150000E-03 1.652190000E+01 0.000000000E+00 3.615473222E+02
3.435220000E-03 1.652130000E+01 0.000000000E+00 3.609084717E+02
3.443580000E-03 1.652050000E+01 0.000000000E+00 3.600322920E+02
3.452000000E-03 1.651970000E+01 0.000000000E+00 3.591541136E+02
3.456200000E-03 1.651930000E+01 0.000000000E+00 3.587176668E+02
3.460410000E-03 1.651890000E+01 0.000000000E+00 3.582812441E+02
3.461640000E-03 1.651880000E+01 0.000000000E+00 3.581539386E+02
3.462870000E-03 1.651870000E+01 0.000000000E+00 3.580267235E+02
3.464360000E-03 1.651860000E+01 0.000000000E+00 3.578727384E+02
3.466590000E-03 1.651830000E+01 0.000000000E+00 3.576425248E+02
3.471600000E-03 1.651790000E+01 0.000000000E+00 3.571263971E+02
3.475750000E-03 1.651750000E+01 0.000000000E+00 3.566999928E+02
3.477830000E-03 1.651730000E+01 0.000000000E+00 3.564866598E+02
3.478870000E-03 1.651720000E+01 0.000000000E+00 3.563800889E+02
3.479390000E-03 1.651710000E+01 0.000000000E+00 3.563268274E+02
3.480450000E-03 1.651700000E+01 0.000000000E+00 3.562183051E+02
3.481440000E-03 1.651690000E+01 0.000000000E+00 3.561170091E+02
3.484940000E-03 1.651660000E+01 0.000000000E+00 3.557593531E+02
3.486470000E-03 1.651650000E+01 0.000000000E+00 3.556032319E+02
3.487940000E-03 1.651630000E+01 0.000000000E+00 3.554533622E+02
3.488440000E-03 1.651630000E+01 0.000000000E+00 3.554024148E+02
3.496960000E-03 1.651550000E+01 0.000000000E+00 3.545365117E+02
3.498150000E-03 1.651530000E+01 0.000000000E+00 3.544159056E+02
3.500240000E-03 1.651510000E+01 0.000000000E+00 3.542042831E+02
3.506510000E-03 1.651450000E+01 0.000000000E+00 3.535709295E+02
3.508110000E-03 1.651440000E+01 0.000000000E+00 3.534096707E+02
3.510910000E-03 1.651410000E+01 0.000000000E+00 3.531278216E+02
3.513010000E-03 1.651390000E+01 0.000000000E+00 3.529167295E+02
3.516160000E-03 1.651360000E+01 0.000000000E+00 3.526005643E+02
3.519310000E-03 1.651330000E+01 0.000000000E+00 3.522849650E+02
3.522370000E-03 1.651300000E+01 0.000000000E+00 3.519789233E+02
3.524660000E-03 1.651280000E+01 0.000000000E+00 3.517502397E+02
3.526380000E-03 1.651260000E+01 0.000000000E+00 3.515786727E+02
3.527670000E-03 1.651250000E+01 0.000000000E+00 3.514501073E+02
3.529000000E-03 1.651240000E+01 0.000000000E+00 3.513176537E+02
3.529460000E-03 1.651240000E+01 0.000000000E+00 3.512718660E+02
3.529980000E-03 1.651230000E+01 0.000000000E+00 3.512201202E+02
3.530760000E-03 1.651220000E+01 0.000000000E+00 3.511425302E+02
3.531150000E-03 1.651220000E+01 0.000000000E+00 3.511037481E+02
3.531540000E-03 1.651220000E+01 0.000000000E+00 3.510649745E+02
3.535710000E-03 1.651180000E+01 0.000000000E+00 3.506509301E+02
3.538840000E-03 1.651150000E+01 0.000000000E+00 3.503407896E+02
3.548230000E-03 1.651060000E+01 0.000000000E+00 3.494136513E+02
3.556620000E-03 1.650980000E+01 0.000000000E+00 3.485893911E+02
3.565150000E-03 1.650900000E+01 0.000000000E+00 3.477553539E+02
3.571680000E-03 1.650830000E+01 0.000000000E+00 3.471195628E+02
3.578200000E-03 1.650770000E+01 0.000000000E+00 3.464870605E+02
3.584460000E-03 1.650710000E+01 0.000000000E+00 3.458819460E+02
3.590720000E-03 1.650650000E+01 0.000000000E+00 3.452789413E+02
3.599240000E-03 1.650570000E+01 0.000000000E+00 3.444616086E+02
3.607760000E-03 1.650490000E+01 0.000000000E+00 3.436481362E+02
3.616290000E-03 1.650410000E+01 0.000000000E+00 3.428375490E+02
3.624810000E-03 1.650330000E+01 0.000000000E+00 3.420317203E+02
3.633330000E-03 1.650250000E+01 0.000000000E+00 3.412296709E+02
3.642090000E-03 1.650160000E+01 0.000000000E+00 3.404089410E+02
3.658500000E-03 1.650010000E+01 0.000000000E+00 3.388820555E+02
3.687210000E-03 1.649730000E+01 0.000000000E+00 3.362433927E+02
3.730290000E-03 1.649320000E+01 0.000000000E+00 3.323602186E+02
3.773360000E-03 1.648890000E+01 0.000000000E+00 3.285665826E+02
3.782650000E-03 1.648730000E+01 0.000000000E+00 3.277596394E+02
3.791940000E-03 1.648570000E+01 0.000000000E+00 3.269566502E+02
3.801230000E-03 1.648410000E+01 0.000000000E+00 3.261575858E+02
3.810510000E-03 1.648250000E+01 0.000000000E+00 3.253632716E+02
3.819800000E-03 1.648090000E+01 0.000000000E+00 3.245719671E+02
3.829090000E-03 1.647940000E+01 0.000000000E+00 3.237845023E+02
3.838380000E-03 1.647780000E+01 0.000000000E+00 3.230008493E+02
3.847660000E-03 1.647620000E+01 0.000000000E+00 3.222218179E+02
3.856950000E-03 1.647460000E+01 0.000000000E+00 3.214457019E+02
3.866240000E-03 1.647300000E+01 0.000000000E+00 3.206733157E+02
3.875530000E-03 1.647140000E+01 0.000000000E+00 3.199046324E+02
3.884820000E-03 1.646980000E+01 0.000000000E+00 3.191396255E+02
3.893980000E-03 1.646830000E+01 0.000000000E+00 3.183888977E+02
3.913150000E-03 1.646500000E+01 0.000000000E+00 3.168291530E+02
3.922740000E-03 1.646340000E+01 0.000000000E+00 3.160545945E+02
3.932320000E-03 1.646170000E+01 0.000000000E+00 3.152846157E+02
3.935950000E-03 1.646110000E+01 0.000000000E+00 3.149938388E+02
3.941910000E-03 1.646010000E+01 0.000000000E+00 3.145175816E+02
3.955330000E-03 1.645780000E+01 0.000000000E+00 3.134504580E+02
3.965020000E-03 1.645610000E+01 0.000000000E+00 3.126844253E+02
3.975430000E-03 1.645440000E+01 0.000000000E+00 3.118656347E+02
3.985050000E-03 1.645270000E+01 0.000000000E+00 3.111127840E+02
3.990470000E-03 1.645180000E+01 0.000000000E+00 3.106902194E+02
4.000000000E-03 1.645020000E+01 0.000000000E+00 3.099500000E+02
4.006730000E-03 1.644880000E+01 0.000000000E+00 3.094293851E+02
4.013910000E-03 1.644740000E+01 0.000000000E+00 3.088758841E+02
4.023530000E-03 1.644550000E+01 0.000000000E+00 3.081373819E+02
4.033150000E-03 1.644360000E+01 0.000000000E+00 3.074024026E+02
4.042770000E-03 1.644170000E+01 0.000000000E+00 3.066709212E+02
4.052390000E-03 1.643980000E+01 0.000000000E+00 3.059429127E+02
4.059610000E-03 1.643840000E+01 0.000000000E+00 3.053987945E+02
4.070440000E-03 1.643630000E+01 0.000000000E+00 3.045862364E+02
4.081270000E-03 1.643410000E+01 0.000000000E+00 3.037779907E+02
4.090960000E-03 1.643220000E+01 0.000000000E+00 3.030584508E+02
4.100640000E-03 1.643030000E+01 0.000000000E+00 3.023430489E+02
4.110330000E-03 1.642840000E+01 0.000000000E+00 3.016302827E+02
4.120020000E-03 1.642650000E+01 0.000000000E+00 3.009208693E+02
4.129710000E-03 1.642460000E+01 0.000000000E+00 3.002147851E+02
4.138520000E-03 1.642290000E+01 0.000000000E+00 2.995756937E+02
4.146230000E-03 1.642130000E+01 0.000000000E+00 2.990186266E+02
4.166640000E-03 1.641610000E+01 0.000000000E+00 2.975539043E+02
4.168590000E-03 1.641550000E+01 0.000000000E+00 2.974147134E+02
4.178190000E-03 1.641250000E+01 0.000000000E+00 2.967313598E+02
4.189110000E-03 1.640910000E+01 0.000000000E+00 2.959578526E+02
4.199370000E-03 1.640590000E+01 0.000000000E+00 2.952347614E+02
4.209630000E-03 1.640270000E+01 0.000000000E+00 2.945151949E+02
4.219890000E-03 1.639950000E+01 0.000000000E+00 2.937991275E+02
4.230150000E-03 1.639630000E+01 0.000000000E+00 2.930865336E+02
4.240410000E-03 1.639310000E+01 0.000000000E+00 2.923773880E+02
4.250670000E-03 1.638990000E+01 0.000000000E+00 2.916716659E+02
4.260930000E-03 1.638670000E+01 0.000000000E+00 2.909693424E+02
