# Data retrieved from https://www-nds.iaea.org/epdl97/za1to100.htm 03/01/2021
# Element, Re  (Z = 75) 
# Atomic weight, g mol-1 = 186.2 
# Nominal density, g cm-3 =  2.10200E+1 
# Relativistic correction estimate f_rel(5CL)*,  e atom-1 =  0 
# Nuclear Thomson correction f_NT*, e atom-1 =  0 
#    E [keV]      f1 [e atom-1]      f2 [e atom-1]    Wavelength [nm] 
1.000000000E-03 6.523500000E+00 0.000000000E+00 1.239800000E+03
1.019750000E-03 6.522500000E+00 0.000000000E+00 1.215788183E+03
1.022260000E-03 6.522300000E+00 0.000000000E+00 1.212803005E+03
1.024770000E-03 6.522200000E+00 0.000000000E+00 1.209832450E+03
1.027280000E-03 6.522100000E+00 0.000000000E+00 1.206876411E+03
1.029790000E-03 6.521900000E+00 0.000000000E+00 1.203934783E+03
1.032300000E-03 6.521800000E+00 0.000000000E+00 1.201007459E+03
1.034810000E-03 6.521700000E+00 0.000000000E+00 1.198094336E+03
1.037320000E-03 6.521600000E+00 0.000000000E+00 1.195195311E+03
1.039830000E-03 6.521400000E+00 0.000000000E+00 1.192310281E+03
1.042340000E-03 6.521300000E+00 0.000000000E+00 1.189439147E+03
1.044850000E-03 6.521200000E+00 0.000000000E+00 1.186581806E+03
1.047360000E-03 6.521000000E+00 0.000000000E+00 1.183738161E+03
1.049870000E-03 6.520900000E+00 0.000000000E+00 1.180908112E+03
1.052380000E-03 6.520800000E+00 0.000000000E+00 1.178091564E+03
1.057400000E-03 6.520500000E+00 0.000000000E+00 1.172498581E+03
1.059910000E-03 6.520400000E+00 0.000000000E+00 1.169721958E+03
1.062420000E-03 6.520200000E+00 0.000000000E+00 1.166958453E+03
1.064930000E-03 6.520100000E+00 0.000000000E+00 1.164207976E+03
1.067440000E-03 6.520000000E+00 0.000000000E+00 1.161470434E+03
1.069950000E-03 6.519800000E+00 0.000000000E+00 1.158745736E+03
1.203690000E-03 6.512800000E+00 0.000000000E+00 1.029999418E+03
1.354160000E-03 6.504900000E+00 0.000000000E+00 9.155491227E+02
1.523420000E-03 6.496000000E+00 0.000000000E+00 8.138267845E+02
1.713850000E-03 6.486100000E+00 0.000000000E+00 7.234005310E+02
1.928080000E-03 6.474800000E+00 0.000000000E+00 6.430231111E+02
2.000000000E-03 6.471000000E+00 0.000000000E+00 6.199000000E+02
2.169090000E-03 6.451900000E+00 0.000000000E+00 5.715760987E+02
2.419190000E-03 6.423500000E+00 0.000000000E+00 5.124855840E+02
2.638030000E-03 6.398700000E+00 0.000000000E+00 4.699719109E+02
2.829510000E-03 6.376900000E+00 0.000000000E+00 4.381677393E+02
2.997060000E-03 6.357900000E+00 0.000000000E+00 4.136720653E+02
3.143670000E-03 6.341300000E+00 0.000000000E+00 3.943798172E+02
3.271940000E-03 6.326800000E+00 0.000000000E+00 3.789189288E+02
3.384190000E-03 6.314000000E+00 0.000000000E+00 3.663505891E+02
3.482400000E-03 6.302900000E+00 0.000000000E+00 3.560188376E+02
3.568340000E-03 6.293100000E+00 0.000000000E+00 3.474444700E+02
3.643530000E-03 6.284600000E+00 0.000000000E+00 3.402744042E+02
3.709330000E-03 6.277100000E+00 0.000000000E+00 3.342382587E+02
3.824470000E-03 6.264100000E+00 0.000000000E+00 3.241756374E+02
3.910820000E-03 6.254300000E+00 0.000000000E+00 3.170179144E+02
3.975590000E-03 6.246900000E+00 0.000000000E+00 3.118530834E+02
4.024170000E-03 6.239100000E+00 0.000000000E+00 3.080883760E+02
4.060600000E-03 6.231400000E+00 0.000000000E+00 3.053243363E+02
4.087920000E-03 6.225600000E+00 0.000000000E+00 3.032838216E+02
4.108420000E-03 6.221300000E+00 0.000000000E+00 3.017705103E+02
4.123780000E-03 6.218000000E+00 0.000000000E+00 3.006464942E+02
4.146840000E-03 6.213200000E+00 0.000000000E+00 2.989746409E+02
4.158370000E-03 6.210700000E+00 0.000000000E+00 2.981456677E+02
4.164130000E-03 6.209500000E+00 0.000000000E+00 2.977332600E+02
4.169890000E-03 6.208300000E+00 0.000000000E+00 2.973219917E+02
4.180160000E-03 6.206100000E+00 0.000000000E+00 2.965915180E+02
4.190420000E-03 6.204000000E+00 0.000000000E+00 2.958653309E+02
4.200680000E-03 6.201800000E+00 0.000000000E+00 2.951426912E+02
4.210950000E-03 6.199600000E+00 0.000000000E+00 2.944228737E+02
4.221210000E-03 6.197500000E+00 0.000000000E+00 2.937072546E+02
4.231480000E-03 6.195300000E+00 0.000000000E+00 2.929944133E+02
4.236610000E-03 6.194200000E+00 0.000000000E+00 2.926396340E+02
4.241740000E-03 6.193100000E+00 0.000000000E+00 2.922857129E+02
4.246870000E-03 6.192000000E+00 0.000000000E+00 2.919326469E+02
4.252000000E-03 6.191000000E+00 0.000000000E+00 2.915804327E+02
4.259700000E-03 6.189300000E+00 0.000000000E+00 2.910533606E+02
4.262270000E-03 6.188800000E+00 0.000000000E+00 2.908778656E+02
4.271250000E-03 6.186900000E+00 0.000000000E+00 2.902663155E+02
4.273810000E-03 6.186400000E+00 0.000000000E+00 2.900924468E+02
4.276060000E-03 6.185900000E+00 0.000000000E+00 2.899398044E+02
4.279430000E-03 6.185200000E+00 0.000000000E+00 2.897114803E+02
4.281110000E-03 6.184800000E+00 0.000000000E+00 2.895977912E+02
4.281950000E-03 6.184600000E+00 0.000000000E+00 2.895409802E+02
4.283440000E-03 6.184300000E+00 0.000000000E+00 2.894402630E+02
4.285840000E-03 6.183800000E+00 0.000000000E+00 2.892781812E+02
4.295620000E-03 6.181800000E+00 0.000000000E+00 2.886195706E+02
4.303320000E-03 6.180100000E+00 0.000000000E+00 2.881031390E+02
4.308450000E-03 6.179000000E+00 0.000000000E+00 2.877600993E+02
4.313580000E-03 6.178000000E+00 0.000000000E+00 2.874178756E+02
4.318720000E-03 6.176900000E+00 0.000000000E+00 2.870758002E+02
4.323850000E-03 6.175800000E+00 0.000000000E+00 2.867352013E+02
4.334110000E-03 6.173600000E+00 0.000000000E+00 2.860564222E+02
4.344380000E-03 6.171500000E+00 0.000000000E+00 2.853801923E+02
4.354640000E-03 6.169300000E+00 0.000000000E+00 2.847078059E+02
4.370030000E-03 6.166000000E+00 0.000000000E+00 2.837051462E+02
4.372600000E-03 6.165500000E+00 0.000000000E+00 2.835383982E+02
4.375170000E-03 6.165000000E+00 0.000000000E+00 2.833718461E+02
4.378100000E-03 6.164300000E+00 0.000000000E+00 2.831822023E+02
4.383880000E-03 6.163100000E+00 0.000000000E+00 2.828088360E+02
4.389480000E-03 6.161900000E+00 0.000000000E+00 2.824480348E+02
4.394900000E-03 6.160800000E+00 0.000000000E+00 2.820997065E+02
4.400160000E-03 6.159700000E+00 0.000000000E+00 2.817624814E+02
4.405240000E-03 6.158600000E+00 0.000000000E+00 2.814375607E+02
4.410170000E-03 6.157600000E+00 0.000000000E+00 2.811229499E+02
4.414950000E-03 6.156600000E+00 0.000000000E+00 2.808185823E+02
4.419580000E-03 6.155600000E+00 0.000000000E+00 2.805243937E+02
4.421820000E-03 6.155100000E+00 0.000000000E+00 2.803822860E+02
4.424030000E-03 6.154600000E+00 0.000000000E+00 2.802422226E+02
4.428370000E-03 6.153700000E+00 0.000000000E+00 2.799675727E+02
4.436780000E-03 6.152000000E+00 0.000000000E+00 2.794368889E+02
4.499900000E-03 6.138600000E+00 0.000000000E+00 2.755172337E+02
4.531460000E-03 6.132000000E+00 0.000000000E+00 2.735983546E+02
4.547240000E-03 6.128600000E+00 0.000000000E+00 2.726489035E+02
4.563020000E-03 6.125300000E+00 0.000000000E+00 2.717060193E+02
4.574250000E-03 6.122900000E+00 0.000000000E+00 2.710389681E+02
4.585480000E-03 6.120600000E+00 0.000000000E+00 2.703751843E+02
4.596710000E-03 6.118200000E+00 0.000000000E+00 2.697146437E+02
4.607940000E-03 6.115800000E+00 0.000000000E+00 2.690573228E+02
4.613710000E-03 6.114600000E+00 0.000000000E+00 2.687208342E+02
4.622060000E-03 6.112800000E+00 0.000000000E+00 2.682353756E+02
4.636420000E-03 6.109800000E+00 0.000000000E+00 2.674045923E+02
4.647780000E-03 6.107400000E+00 0.000000000E+00 2.667510080E+02
4.659130000E-03 6.105000000E+00 0.000000000E+00 2.661011820E+02
4.670490000E-03 6.102600000E+00 0.000000000E+00 2.654539459E+02
4.678530000E-03 6.100900000E+00 0.000000000E+00 2.649977664E+02
4.686560000E-03 6.099200000E+00 0.000000000E+00 2.645437165E+02
4.695560000E-03 6.097300000E+00 0.000000000E+00 2.640366644E+02
4.700060000E-03 6.096400000E+00 0.000000000E+00 2.637838666E+02
4.704560000E-03 6.095400000E+00 0.000000000E+00 2.635315524E+02
4.713070000E-03 6.093600000E+00 0.000000000E+00 2.630557153E+02
4.718750000E-03 6.092400000E+00 0.000000000E+00 2.627390728E+02
4.723010000E-03 6.091500000E+00 0.000000000E+00 2.625020908E+02
4.725140000E-03 6.091100000E+00 0.000000000E+00 2.623837601E+02
4.725670000E-03 6.091000000E+00 0.000000000E+00 2.623543328E+02
4.726070000E-03 6.090900000E+00 0.000000000E+00 2.623321280E+02
4.726370000E-03 6.090800000E+00 0.000000000E+00 2.623154768E+02
4.726640000E-03 6.090800000E+00 0.000000000E+00 2.623004925E+02
4.726950000E-03 6.090700000E+00 0.000000000E+00 2.622832905E+02
4.727110000E-03 6.090700000E+00 0.000000000E+00 2.622744129E+02
4.727450000E-03 6.090600000E+00 0.000000000E+00 2.622555500E+02
4.728150000E-03 6.090400000E+00 0.000000000E+00 2.622167232E+02
4.738630000E-03 6.088200000E+00 0.000000000E+00 2.616368022E+02
4.741470000E-03 6.087600000E+00 0.000000000E+00 2.614800895E+02
4.749980000E-03 6.085800000E+00 0.000000000E+00 2.610116253E+02
4.753780000E-03 6.085000000E+00 0.000000000E+00 2.608029820E+02
4.759480000E-03 6.083800000E+00 0.000000000E+00 2.604906418E+02
4.765180000E-03 6.082600000E+00 0.000000000E+00 2.601790489E+02
4.774620000E-03 6.080600000E+00 0.000000000E+00 2.596646435E+02
4.779330000E-03 6.079600000E+00 0.000000000E+00 2.594087456E+02
4.784050000E-03 6.078600000E+00 0.000000000E+00 2.591528099E+02
4.795410000E-03 6.076200000E+00 0.000000000E+00 2.585388945E+02
4.806760000E-03 6.073800000E+00 0.000000000E+00 2.579284175E+02
4.818120000E-03 6.071400000E+00 0.000000000E+00 2.573202826E+02
4.829470000E-03 6.069000000E+00 0.000000000E+00 2.567155402E+02
4.840830000E-03 6.066600000E+00 0.000000000E+00 2.561131046E+02
4.846020000E-03 6.065600000E+00 0.000000000E+00 2.558388121E+02
4.856070000E-03 6.063400000E+00 0.000000000E+00 2.553093345E+02
4.874910000E-03 6.059500000E+00 0.000000000E+00 2.543226439E+02
4.891400000E-03 6.056000000E+00 0.000000000E+00 2.534652656E+02
4.920260000E-03 6.049900000E+00 0.000000000E+00 2.519785540E+02
5.006830000E-03 6.031200000E+00 0.000000000E+00 2.476217487E+02
5.019160000E-03 6.027800000E+00 0.000000000E+00 2.470134445E+02
5.031480000E-03 6.024400000E+00 0.000000000E+00 2.464086114E+02
5.043800000E-03 6.021000000E+00 0.000000000E+00 2.458067330E+02
5.049970000E-03 6.019300000E+00 0.000000000E+00 2.455064089E+02
5.056130000E-03 6.017600000E+00 0.000000000E+00 2.452073028E+02
5.059210000E-03 6.016800000E+00 0.000000000E+00 2.450580229E+02
5.063830000E-03 6.015500000E+00 0.000000000E+00 2.448344435E+02
5.069990000E-03 6.013800000E+00 0.000000000E+00 2.445369715E+02
5.072690000E-03 6.013100000E+00 0.000000000E+00 2.444068137E+02
5.074710000E-03 6.012500000E+00 0.000000000E+00 2.443095270E+02
5.077740000E-03 6.011700000E+00 0.000000000E+00 2.441637421E+02
5.080780000E-03 6.010900000E+00 0.000000000E+00 2.440176508E+02
5.082320000E-03 6.010500000E+00 0.000000000E+00 2.439437107E+02
5.085010000E-03 6.009700000E+00 0.000000000E+00 2.438146631E+02
5.087030000E-03 6.009200000E+00 0.000000000E+00 2.437178472E+02
5.090070000E-03 6.008300000E+00 0.000000000E+00 2.435722888E+02
5.093100000E-03 6.007500000E+00 0.000000000E+00 2.434273821E+02
5.099260000E-03 6.005800000E+00 0.000000000E+00 2.431333174E+02
5.102340000E-03 6.005000000E+00 0.000000000E+00 2.429865513E+02
5.111580000E-03 6.002400000E+00 0.000000000E+00 2.425473141E+02
5.114670000E-03 6.001600000E+00 0.000000000E+00 2.424007805E+02
5.117750000E-03 6.000700000E+00 0.000000000E+00 2.422548972E+02
5.130070000E-03 5.997400000E+00 0.000000000E+00 2.416731156E+02
5.142390000E-03 5.994000000E+00 0.000000000E+00 2.410941216E+02
5.154720000E-03 5.990600000E+00 0.000000000E+00 2.405174287E+02
5.167040000E-03 5.987200000E+00 0.000000000E+00 2.399439524E+02
5.179360000E-03 5.983800000E+00 0.000000000E+00 2.393732044E+02
5.191690000E-03 5.980400000E+00 0.000000000E+00 2.388047052E+02
5.204010000E-03 5.977100000E+00 0.000000000E+00 2.382393577E+02
5.216340000E-03 5.973700000E+00 0.000000000E+00 2.376762251E+02
5.228660000E-03 5.970300000E+00 0.000000000E+00 2.371162019E+02
5.240980000E-03 5.966900000E+00 0.000000000E+00 2.365588115E+02
5.253310000E-03 5.963500000E+00 0.000000000E+00 2.360035863E+02
5.263600000E-03 5.960700000E+00 0.000000000E+00 2.355422145E+02
5.283550000E-03 5.955200000E+00 0.000000000E+00 2.346528376E+02
5.320950000E-03 5.945000000E+00 0.000000000E+00 2.330035050E+02
5.386410000E-03 5.927000000E+00 0.000000000E+00 2.301718584E+02
5.484590000E-03 5.900100000E+00 0.000000000E+00 2.260515371E+02
5.533680000E-03 5.886600000E+00 0.000000000E+00 2.240462043E+02
5.558220000E-03 5.879900000E+00 0.000000000E+00 2.230570219E+02
5.570490000E-03 5.876500000E+00 0.000000000E+00 2.225656989E+02
5.576630000E-03 5.874800000E+00 0.000000000E+00 2.223206489E+02
5.582770000E-03 5.873100000E+00 0.000000000E+00 2.220761378E+02
5.589640000E-03 5.871200000E+00 0.000000000E+00 2.218031930E+02
5.603380000E-03 5.867500000E+00 0.000000000E+00 2.212593113E+02
5.610250000E-03 5.865600000E+00 0.000000000E+00 2.209883695E+02
5.623990000E-03 5.861800000E+00 0.000000000E+00 2.204484716E+02
5.625710000E-03 5.861400000E+00 0.000000000E+00 2.203810719E+02
5.637730000E-03 5.858100000E+00 0.000000000E+00 2.199112054E+02
5.638990000E-03 5.857700000E+00 0.000000000E+00 2.198620675E+02
5.642130000E-03 5.856800000E+00 0.000000000E+00 2.197397082E+02
5.643300000E-03 5.856500000E+00 0.000000000E+00 2.196941506E+02
5.651470000E-03 5.854300000E+00 0.000000000E+00 2.193765516E+02
5.652540000E-03 5.854000000E+00 0.000000000E+00 2.193350246E+02
5.654530000E-03 5.853400000E+00 0.000000000E+00 2.192578340E+02
5.656270000E-03 5.853000000E+00 0.000000000E+00 2.191903852E+02
5.657800000E-03 5.852500000E+00 0.000000000E+00 2.191311110E+02
5.660470000E-03 5.851800000E+00 0.000000000E+00 2.190277486E+02
5.663980000E-03 5.850900000E+00 0.000000000E+00 2.188920159E+02
5.666230000E-03 5.850200000E+00 0.000000000E+00 2.188050962E+02
5.670000000E-03 5.849200000E+00 0.000000000E+00 2.186596120E+02
5.671410000E-03 5.848800000E+00 0.000000000E+00 2.186052498E+02
5.674560000E-03 5.847900000E+00 0.000000000E+00 2.184839001E+02
5.676750000E-03 5.847300000E+00 0.000000000E+00 2.183996125E+02
5.678750000E-03 5.846800000E+00 0.000000000E+00 2.183226943E+02
5.680490000E-03 5.846300000E+00 0.000000000E+00 2.182558195E+02
5.683540000E-03 5.845500000E+00 0.000000000E+00 2.181386952E+02
5.685830000E-03 5.844900000E+00 0.000000000E+00 2.180508387E+02
5.689260000E-03 5.843900000E+00 0.000000000E+00 2.179193779E+02
5.690980000E-03 5.843400000E+00 0.000000000E+00 2.178535156E+02
5.703000000E-03 5.840100000E+00 0.000000000E+00 2.173943538E+02
5.706440000E-03 5.839200000E+00 0.000000000E+00 2.172633025E+02
5.720180000E-03 5.835400000E+00 0.000000000E+00 2.167414312E+02
5.733920000E-03 5.831700000E+00 0.000000000E+00 2.162220610E+02
5.747660000E-03 5.827900000E+00 0.000000000E+00 2.157051739E+02
5.756430000E-03 5.825500000E+00 0.000000000E+00 2.153765441E+02
5.765200000E-03 5.823100000E+00 0.000000000E+00 2.150489142E+02
5.777040000E-03 5.819800000E+00 0.000000000E+00 2.146081730E+02
5.788890000E-03 5.816600000E+00 0.000000000E+00 2.141688648E+02
5.802630000E-03 5.812800000E+00 0.000000000E+00 2.136617361E+02
5.816370000E-03 5.809000000E+00 0.000000000E+00 2.131570034E+02
5.830110000E-03 5.805300000E+00 0.000000000E+00 2.126546497E+02
5.848090000E-03 5.800300000E+00 0.000000000E+00 2.120008413E+02
5.857590000E-03 5.797700000E+00 0.000000000E+00 2.116570125E+02
5.861910000E-03 5.796500000E+00 0.000000000E+00 2.115010295E+02
5.875730000E-03 5.792500000E+00 0.000000000E+00 2.110035689E+02
5.889540000E-03 5.788100000E+00 0.000000000E+00 2.105088003E+02
5.918740000E-03 5.778900000E+00 0.000000000E+00 2.094702589E+02
6.006340000E-03 5.751100000E+00 0.000000000E+00 2.064152212E+02
6.026580000E-03 5.743700000E+00 0.000000000E+00 2.057219849E+02
6.041420000E-03 5.738300000E+00 0.000000000E+00 2.052166544E+02
6.056250000E-03 5.732900000E+00 0.000000000E+00 2.047141383E+02
6.071080000E-03 5.727600000E+00 0.000000000E+00 2.042140772E+02
6.085920000E-03 5.722200000E+00 0.000000000E+00 2.037161185E+02
6.100750000E-03 5.716800000E+00 0.000000000E+00 2.032209155E+02
6.124610000E-03 5.708100000E+00 0.000000000E+00 2.024292159E+02
6.145250000E-03 5.700700000E+00 0.000000000E+00 2.017493186E+02
6.160090000E-03 5.695300000E+00 0.000000000E+00 2.012632932E+02
6.174920000E-03 5.689900000E+00 0.000000000E+00 2.007799291E+02
6.189750000E-03 5.684500000E+00 0.000000000E+00 2.002988812E+02
6.204590000E-03 5.679100000E+00 0.000000000E+00 1.998198108E+02
6.228100000E-03 5.670600000E+00 0.000000000E+00 1.990655256E+02
6.249090000E-03 5.663000000E+00 0.000000000E+00 1.983968866E+02
6.263920000E-03 5.657600000E+00 0.000000000E+00 1.979271766E+02
6.278760000E-03 5.652200000E+00 0.000000000E+00 1.974593710E+02
6.293590000E-03 5.646800000E+00 0.000000000E+00 1.969940845E+02
6.308420000E-03 5.641500000E+00 0.000000000E+00 1.965309856E+02
6.323260000E-03 5.636100000E+00 0.000000000E+00 1.960697488E+02
6.339840000E-03 5.630100000E+00 0.000000000E+00 1.955569857E+02
6.355450000E-03 5.624400000E+00 0.000000000E+00 1.950766665E+02
6.371050000E-03 5.618700000E+00 0.000000000E+00 1.945990064E+02
6.386660000E-03 5.613100000E+00 0.000000000E+00 1.941233759E+02
6.402260000E-03 5.607400000E+00 0.000000000E+00 1.936503672E+02
6.417870000E-03 5.601800000E+00 0.000000000E+00 1.931793570E+02
6.438720000E-03 5.594200000E+00 0.000000000E+00 1.925537995E+02
6.445680000E-03 5.591700000E+00 0.000000000E+00 1.923458813E+02
6.450430000E-03 5.589900000E+00 0.000000000E+00 1.922042406E+02
6.457550000E-03 5.587400000E+00 0.000000000E+00 1.919923191E+02
6.464680000E-03 5.584800000E+00 0.000000000E+00 1.917805676E+02
6.477410000E-03 5.580200000E+00 0.000000000E+00 1.914036629E+02
6.493270000E-03 5.574400000E+00 0.000000000E+00 1.909361539E+02
6.497920000E-03 5.572700000E+00 0.000000000E+00 1.907995174E+02
6.511850000E-03 5.567700000E+00 0.000000000E+00 1.903913634E+02
6.515820000E-03 5.566200000E+00 0.000000000E+00 1.902753606E+02
6.521790000E-03 5.564100000E+00 0.000000000E+00 1.901011839E+02
6.527760000E-03 5.561900000E+00 0.000000000E+00 1.899273258E+02
6.533360000E-03 5.559900000E+00 0.000000000E+00 1.897645316E+02
6.538270000E-03 5.558100000E+00 0.000000000E+00 1.896220254E+02
6.546850000E-03 5.555000000E+00 0.000000000E+00 1.893735155E+02
6.553290000E-03 5.552600000E+00 0.000000000E+00 1.891874158E+02
6.558120000E-03 5.550900000E+00 0.000000000E+00 1.890480809E+02
6.565360000E-03 5.548200000E+00 0.000000000E+00 1.888396067E+02
6.568980000E-03 5.546900000E+00 0.000000000E+00 1.887355419E+02
6.582000000E-03 5.542000000E+00 0.000000000E+00 1.883621999E+02
6.591400000E-03 5.537500000E+00 0.000000000E+00 1.880935765E+02
6.605120000E-03 5.531000000E+00 0.000000000E+00 1.877028729E+02
6.620730000E-03 5.523600000E+00 0.000000000E+00 1.872603172E+02
6.639130000E-03 5.514900000E+00 0.000000000E+00 1.867413351E+02
6.650260000E-03 5.509600000E+00 0.000000000E+00 1.864288013E+02
6.666960000E-03 5.501700000E+00 0.000000000E+00 1.859618177E+02
6.683660000E-03 5.493800000E+00 0.000000000E+00 1.854971677E+02
6.699520000E-03 5.486300000E+00 0.000000000E+00 1.850580340E+02
6.715390000E-03 5.478700000E+00 0.000000000E+00 1.846206996E+02
6.731250000E-03 5.471200000E+00 0.000000000E+00 1.841857010E+02
6.750500000E-03 5.462100000E+00 0.000000000E+00 1.836604696E+02
6.762980000E-03 5.456200000E+00 0.000000000E+00 1.833215535E+02
6.773470000E-03 5.451200000E+00 0.000000000E+00 1.830376454E+02
6.782330000E-03 5.447000000E+00 0.000000000E+00 1.827985368E+02
6.799260000E-03 5.439000000E+00 0.000000000E+00 1.823433727E+02
6.815830000E-03 5.430300000E+00 0.000000000E+00 1.819000767E+02
6.838800000E-03 5.417800000E+00 0.000000000E+00 1.812891150E+02
6.872470000E-03 5.399500000E+00 0.000000000E+00 1.804009330E+02
6.889300000E-03 5.390300000E+00 0.000000000E+00 1.799602282E+02
6.906130000E-03 5.381100000E+00 0.000000000E+00 1.795216713E+02
