# Data retrieved from https://www-nds.iaea.org/epdl97/za1to100.htm 03/01/2021
# Element, Rh  (Z = 45) 
# Atomic weight, g mol-1 = 102.91 
# Nominal density, g cm-3 =  1.24100E+1 
# Relativistic correction estimate f_rel(5CL)*,  e atom-1 =  0 
# Nuclear Thomson correction f_NT*, e atom-1 =  0 
#    E [keV]      f1 [e atom-1]      f2 [e atom-1]    Wavelength [nm] 
1.000000000E-03 3.085500000E+00 0.000000000E+00 1.239800000E+03
1.125000000E-03 3.079800000E+00 0.000000000E+00 1.102044444E+03
1.265630000E-03 3.073300000E+00 0.000000000E+00 9.795911917E+02
1.423830000E-03 3.066000000E+00 0.000000000E+00 8.707500193E+02
1.601810000E-03 3.057800000E+00 0.000000000E+00 7.739994132E+02
1.794930000E-03 3.048900000E+00 0.000000000E+00 6.907233151E+02
1.963910000E-03 3.041200000E+00 0.000000000E+00 6.312916580E+02
2.111770000E-03 3.028600000E+00 0.000000000E+00 5.870904502E+02
2.241150000E-03 3.016000000E+00 0.000000000E+00 5.531981349E+02
2.354350000E-03 3.005000000E+00 0.000000000E+00 5.265996984E+02
2.453410000E-03 2.995400000E+00 0.000000000E+00 5.053374691E+02
2.540080000E-03 2.986900000E+00 0.000000000E+00 4.880948632E+02
2.615920000E-03 2.979600000E+00 0.000000000E+00 4.739441573E+02
2.748630000E-03 2.966700000E+00 0.000000000E+00 4.510610741E+02
2.848170000E-03 2.957000000E+00 0.000000000E+00 4.352970504E+02
2.922830000E-03 2.949700000E+00 0.000000000E+00 4.241779371E+02
2.978820000E-03 2.944300000E+00 0.000000000E+00 4.162050745E+02
3.020810000E-03 2.940200000E+00 0.000000000E+00 4.104197219E+02
3.083800000E-03 2.934000000E+00 0.000000000E+00 4.020364485E+02
3.115290000E-03 2.931000000E+00 0.000000000E+00 3.979725804E+02
3.146790000E-03 2.927900000E+00 0.000000000E+00 3.939887949E+02
3.154530000E-03 2.927200000E+00 0.000000000E+00 3.930220984E+02
3.162280000E-03 2.926400000E+00 0.000000000E+00 3.920588942E+02
3.170020000E-03 2.925600000E+00 0.000000000E+00 3.911016334E+02
3.174190000E-03 2.925200000E+00 0.000000000E+00 3.905878350E+02
3.177770000E-03 2.924900000E+00 0.000000000E+00 3.901478081E+02
3.185510000E-03 2.924100000E+00 0.000000000E+00 3.891998456E+02
3.193260000E-03 2.923400000E+00 0.000000000E+00 3.882552626E+02
3.208750000E-03 2.921900000E+00 0.000000000E+00 3.863809895E+02
3.216490000E-03 2.921100000E+00 0.000000000E+00 3.854512217E+02
3.224240000E-03 2.920400000E+00 0.000000000E+00 3.845247252E+02
3.231990000E-03 2.919600000E+00 0.000000000E+00 3.836026720E+02
3.239730000E-03 2.918900000E+00 0.000000000E+00 3.826862115E+02
3.247480000E-03 2.918100000E+00 0.000000000E+00 3.817729439E+02
3.260130000E-03 2.916900000E+00 0.000000000E+00 3.802915835E+02
3.265010000E-03 2.916400000E+00 0.000000000E+00 3.797231861E+02
3.281080000E-03 2.914800000E+00 0.000000000E+00 3.778633864E+02
3.289120000E-03 2.914100000E+00 0.000000000E+00 3.769397286E+02
3.297150000E-03 2.913300000E+00 0.000000000E+00 3.760217157E+02
3.305190000E-03 2.912500000E+00 0.000000000E+00 3.751070286E+02
3.310010000E-03 2.912000000E+00 0.000000000E+00 3.745608019E+02
3.314820000E-03 2.911600000E+00 0.000000000E+00 3.740172920E+02
3.318730000E-03 2.911200000E+00 0.000000000E+00 3.735766393E+02
3.322640000E-03 2.910800000E+00 0.000000000E+00 3.731370236E+02
3.326540000E-03 2.910400000E+00 0.000000000E+00 3.726995617E+02
3.330450000E-03 2.910000000E+00 0.000000000E+00 3.722620066E+02
3.333890000E-03 2.909700000E+00 0.000000000E+00 3.718778964E+02
3.337330000E-03 2.909400000E+00 0.000000000E+00 3.714945780E+02
3.344370000E-03 2.908700000E+00 0.000000000E+00 3.707125707E+02
3.346370000E-03 2.908500000E+00 0.000000000E+00 3.704910097E+02
3.348130000E-03 2.908300000E+00 0.000000000E+00 3.702962549E+02
3.350770000E-03 2.908100000E+00 0.000000000E+00 3.700045064E+02
3.352090000E-03 2.907900000E+00 0.000000000E+00 3.698588045E+02
3.352750000E-03 2.907900000E+00 0.000000000E+00 3.697859966E+02
3.353910000E-03 2.907700000E+00 0.000000000E+00 3.696581005E+02
3.355790000E-03 2.907600000E+00 0.000000000E+00 3.694510086E+02
3.363450000E-03 2.906800000E+00 0.000000000E+00 3.686096122E+02
3.366470000E-03 2.906500000E+00 0.000000000E+00 3.682789391E+02
3.369480000E-03 2.906200000E+00 0.000000000E+00 3.679499507E+02
3.373500000E-03 2.905800000E+00 0.000000000E+00 3.675114866E+02
3.377520000E-03 2.905500000E+00 0.000000000E+00 3.670740662E+02
3.381530000E-03 2.905100000E+00 0.000000000E+00 3.666387700E+02
3.385550000E-03 2.904700000E+00 0.000000000E+00 3.662034234E+02
3.393590000E-03 2.903900000E+00 0.000000000E+00 3.653358243E+02
3.401620000E-03 2.903100000E+00 0.000000000E+00 3.644733980E+02
3.409660000E-03 2.902300000E+00 0.000000000E+00 3.636139674E+02
3.421720000E-03 2.901100000E+00 0.000000000E+00 3.623323942E+02
3.423720000E-03 2.901000000E+00 0.000000000E+00 3.621207342E+02
3.425730000E-03 2.900800000E+00 0.000000000E+00 3.619082648E+02
3.428260000E-03 2.900500000E+00 0.000000000E+00 3.616411824E+02
3.433240000E-03 2.900000000E+00 0.000000000E+00 3.611166129E+02
3.438060000E-03 2.899600000E+00 0.000000000E+00 3.606103442E+02
3.442730000E-03 2.899100000E+00 0.000000000E+00 3.601211829E+02
3.447260000E-03 2.898700000E+00 0.000000000E+00 3.596479523E+02
3.451640000E-03 2.898200000E+00 0.000000000E+00 3.591915727E+02
3.455890000E-03 2.897800000E+00 0.000000000E+00 3.587498445E+02
3.457940000E-03 2.897600000E+00 0.000000000E+00 3.585371637E+02
3.522740000E-03 2.891300000E+00 0.000000000E+00 3.519419543E+02
3.538930000E-03 2.889700000E+00 0.000000000E+00 3.503318800E+02
3.551080000E-03 2.888600000E+00 0.000000000E+00 3.491332214E+02
3.560190000E-03 2.887700000E+00 0.000000000E+00 3.482398411E+02
3.573860000E-03 2.886300000E+00 0.000000000E+00 3.469078252E+02
3.580690000E-03 2.885700000E+00 0.000000000E+00 3.462461146E+02
3.584110000E-03 2.885300000E+00 0.000000000E+00 3.459157225E+02
3.587530000E-03 2.885000000E+00 0.000000000E+00 3.455859603E+02
3.591940000E-03 2.884600000E+00 0.000000000E+00 3.451616675E+02
3.605190000E-03 2.883300000E+00 0.000000000E+00 3.438931097E+02
3.614020000E-03 2.882400000E+00 0.000000000E+00 3.430528885E+02
3.622850000E-03 2.881600000E+00 0.000000000E+00 3.422167630E+02
3.631680000E-03 2.880700000E+00 0.000000000E+00 3.413847035E+02
3.636090000E-03 2.880300000E+00 0.000000000E+00 3.409706580E+02
3.640510000E-03 2.879900000E+00 0.000000000E+00 3.405566802E+02
3.644920000E-03 2.879400000E+00 0.000000000E+00 3.401446397E+02
3.649340000E-03 2.879000000E+00 0.000000000E+00 3.397326640E+02
3.653750000E-03 2.878600000E+00 0.000000000E+00 3.393226138E+02
3.658170000E-03 2.878100000E+00 0.000000000E+00 3.389126257E+02
3.664790000E-03 2.877500000E+00 0.000000000E+00 3.383004210E+02
3.665900000E-03 2.877400000E+00 0.000000000E+00 3.381979869E+02
3.668100000E-03 2.877200000E+00 0.000000000E+00 3.379951474E+02
3.671970000E-03 2.876800000E+00 0.000000000E+00 3.376389241E+02
3.673900000E-03 2.876600000E+00 0.000000000E+00 3.374615531E+02
3.674380000E-03 2.876600000E+00 0.000000000E+00 3.374174691E+02
3.674470000E-03 2.876600000E+00 0.000000000E+00 3.374092046E+02
3.674810000E-03 2.876500000E+00 0.000000000E+00 3.373779869E+02
3.675320000E-03 2.876500000E+00 0.000000000E+00 3.373311712E+02
3.675580000E-03 2.876400000E+00 0.000000000E+00 3.373073093E+02
3.676110000E-03 2.876400000E+00 0.000000000E+00 3.372586783E+02
3.684660000E-03 2.875600000E+00 0.000000000E+00 3.364760928E+02
3.686870000E-03 2.875300000E+00 0.000000000E+00 3.362744008E+02
3.693490000E-03 2.874700000E+00 0.000000000E+00 3.356716818E+02
3.697910000E-03 2.874300000E+00 0.000000000E+00 3.352704636E+02
3.702320000E-03 2.873800000E+00 0.000000000E+00 3.348711078E+02
3.706740000E-03 2.873400000E+00 0.000000000E+00 3.344718000E+02
3.711150000E-03 2.873000000E+00 0.000000000E+00 3.340743435E+02
3.715570000E-03 2.872600000E+00 0.000000000E+00 3.336769325E+02
3.719980000E-03 2.872100000E+00 0.000000000E+00 3.332813617E+02
3.728810000E-03 2.871300000E+00 0.000000000E+00 3.324921356E+02
3.737640000E-03 2.870400000E+00 0.000000000E+00 3.317066384E+02
3.746470000E-03 2.869500000E+00 0.000000000E+00 3.309248439E+02
3.755300000E-03 2.868700000E+00 0.000000000E+00 3.301467260E+02
3.764130000E-03 2.867800000E+00 0.000000000E+00 3.293722587E+02
3.768130000E-03 2.867400000E+00 0.000000000E+00 3.290226186E+02
3.776070000E-03 2.866700000E+00 0.000000000E+00 3.283307778E+02
3.791690000E-03 2.865100000E+00 0.000000000E+00 3.269782076E+02
3.806820000E-03 2.863700000E+00 0.000000000E+00 3.256786504E+02
3.821480000E-03 2.862200000E+00 0.000000000E+00 3.244292787E+02
3.849890000E-03 2.859500000E+00 0.000000000E+00 3.220351750E+02
3.876520000E-03 2.856900000E+00 0.000000000E+00 3.198229340E+02
3.901490000E-03 2.854500000E+00 0.000000000E+00 3.177760292E+02
3.948300000E-03 2.849900000E+00 0.000000000E+00 3.140085606E+02
4.000000000E-03 2.844900000E+00 0.000000000E+00 3.099500000E+02
4.060940000E-03 2.833500000E+00 0.000000000E+00 3.052987732E+02
4.114700000E-03 2.823500000E+00 0.000000000E+00 3.013099375E+02
4.195340000E-03 2.808500000E+00 0.000000000E+00 2.955183608E+02
4.275980000E-03 2.793500000E+00 0.000000000E+00 2.899452289E+02
4.286510000E-03 2.791600000E+00 0.000000000E+00 2.892329657E+02
4.297030000E-03 2.789600000E+00 0.000000000E+00 2.885248648E+02
4.307560000E-03 2.787700000E+00 0.000000000E+00 2.878195545E+02
4.318080000E-03 2.785700000E+00 0.000000000E+00 2.871183489E+02
4.328610000E-03 2.783700000E+00 0.000000000E+00 2.864198900E+02
4.339130000E-03 2.781800000E+00 0.000000000E+00 2.857254795E+02
4.349660000E-03 2.779800000E+00 0.000000000E+00 2.850337728E+02
4.360180000E-03 2.777900000E+00 0.000000000E+00 2.843460591E+02
4.370710000E-03 2.775900000E+00 0.000000000E+00 2.836610070E+02
4.381230000E-03 2.774000000E+00 0.000000000E+00 2.829798938E+02
4.391750000E-03 2.772000000E+00 0.000000000E+00 2.823020436E+02
4.402280000E-03 2.770000000E+00 0.000000000E+00 2.816267934E+02
4.412800000E-03 2.768100000E+00 0.000000000E+00 2.809554025E+02
4.433850000E-03 2.764200000E+00 0.000000000E+00 2.796215479E+02
4.444380000E-03 2.762200000E+00 0.000000000E+00 2.789590449E+02
4.454900000E-03 2.760200000E+00 0.000000000E+00 2.783002985E+02
4.465430000E-03 2.758300000E+00 0.000000000E+00 2.776440343E+02
4.475950000E-03 2.756300000E+00 0.000000000E+00 2.769914767E+02
4.486480000E-03 2.754400000E+00 0.000000000E+00 2.763413634E+02
4.973490000E-03 2.663800000E+00 0.000000000E+00 2.492816915E+02
4.975710000E-03 2.663400000E+00 0.000000000E+00 2.491704701E+02
4.976690000E-03 2.663200000E+00 0.000000000E+00 2.491214040E+02
5.000200000E-03 2.658800000E+00 0.000000000E+00 2.479500820E+02
5.001190000E-03 2.658600000E+00 0.000000000E+00 2.479009996E+02
5.003430000E-03 2.658200000E+00 0.000000000E+00 2.477900160E+02
5.028060000E-03 2.653600000E+00 0.000000000E+00 2.465762143E+02
5.040370000E-03 2.651300000E+00 0.000000000E+00 2.459740059E+02
5.052690000E-03 2.649000000E+00 0.000000000E+00 2.453742462E+02
5.065000000E-03 2.646700000E+00 0.000000000E+00 2.447778875E+02
5.075970000E-03 2.644700000E+00 0.000000000E+00 2.442488825E+02
5.086940000E-03 2.642700000E+00 0.000000000E+00 2.437221591E+02
5.094440000E-03 2.641300000E+00 0.000000000E+00 2.433633530E+02
5.101950000E-03 2.639900000E+00 0.000000000E+00 2.430051255E+02
5.114260000E-03 2.637600000E+00 0.000000000E+00 2.424202133E+02
5.126580000E-03 2.635300000E+00 0.000000000E+00 2.418376383E+02
5.138900000E-03 2.633000000E+00 0.000000000E+00 2.412578567E+02
5.151210000E-03 2.630700000E+00 0.000000000E+00 2.406813157E+02
5.161950000E-03 2.628600000E+00 0.000000000E+00 2.401805519E+02
5.172690000E-03 2.626400000E+00 0.000000000E+00 2.396818677E+02
5.188160000E-03 2.623400000E+00 0.000000000E+00 2.389671868E+02
5.200470000E-03 2.620900000E+00 0.000000000E+00 2.384015291E+02
5.212790000E-03 2.618500000E+00 0.000000000E+00 2.378380867E+02
5.225100000E-03 2.616100000E+00 0.000000000E+00 2.372777554E+02
5.237420000E-03 2.613600000E+00 0.000000000E+00 2.367196062E+02
5.249730000E-03 2.611200000E+00 0.000000000E+00 2.361645266E+02
5.271780000E-03 2.606900000E+00 0.000000000E+00 2.351767335E+02
5.313120000E-03 2.598700000E+00 0.000000000E+00 2.333468847E+02
5.457810000E-03 2.570100000E+00 0.000000000E+00 2.271607110E+02
5.493980000E-03 2.562900000E+00 0.000000000E+00 2.256651826E+02
5.521110000E-03 2.557600000E+00 0.000000000E+00 2.245562939E+02
5.541460000E-03 2.553500000E+00 0.000000000E+00 2.237316519E+02
5.556720000E-03 2.550500000E+00 0.000000000E+00 2.231172346E+02
5.568170000E-03 2.548300000E+00 0.000000000E+00 2.226584318E+02
5.583190000E-03 2.545300000E+00 0.000000000E+00 2.220594320E+02
5.594350000E-03 2.543100000E+00 0.000000000E+00 2.216164523E+02
5.601940000E-03 2.541600000E+00 0.000000000E+00 2.213161869E+02
5.602500000E-03 2.541500000E+00 0.000000000E+00 2.212940651E+02
5.602780000E-03 2.541400000E+00 0.000000000E+00 2.212830059E+02
5.603720000E-03 2.541200000E+00 0.000000000E+00 2.212458867E+02
5.605460000E-03 2.540900000E+00 0.000000000E+00 2.211772094E+02
5.624030000E-03 2.537200000E+00 0.000000000E+00 2.204469037E+02
5.630370000E-03 2.536000000E+00 0.000000000E+00 2.201986726E+02
5.644160000E-03 2.533200000E+00 0.000000000E+00 2.196606758E+02
5.657950000E-03 2.530500000E+00 0.000000000E+00 2.191253016E+02
5.665410000E-03 2.529000000E+00 0.000000000E+00 2.188367656E+02
5.672870000E-03 2.527600000E+00 0.000000000E+00 2.185489884E+02
5.677590000E-03 2.526600000E+00 0.000000000E+00 2.183673002E+02
5.685830000E-03 2.525000000E+00 0.000000000E+00 2.180508387E+02
5.692010000E-03 2.523800000E+00 0.000000000E+00 2.178140938E+02
5.696650000E-03 2.522900000E+00 0.000000000E+00 2.176366812E+02
5.703610000E-03 2.521500000E+00 0.000000000E+00 2.173711036E+02
5.707090000E-03 2.520800000E+00 0.000000000E+00 2.172385577E+02
5.710570000E-03 2.520100000E+00 0.000000000E+00 2.171061733E+02
5.723130000E-03 2.517600000E+00 0.000000000E+00 2.166297114E+02
5.727270000E-03 2.516700000E+00 0.000000000E+00 2.164731190E+02
5.728480000E-03 2.516400000E+00 0.000000000E+00 2.164273944E+02
5.730150000E-03 2.516000000E+00 0.000000000E+00 2.163643186E+02
5.738920000E-03 2.513900000E+00 0.000000000E+00 2.160336788E+02
5.741840000E-03 2.513200000E+00 0.000000000E+00 2.159238154E+02
5.755630000E-03 2.509900000E+00 0.000000000E+00 2.154064803E+02
5.762530000E-03 2.508200000E+00 0.000000000E+00 2.151485545E+02
5.769430000E-03 2.506600000E+00 0.000000000E+00 2.148912458E+02
5.775440000E-03 2.505100000E+00 0.000000000E+00 2.146676271E+02
5.784460000E-03 2.503000000E+00 0.000000000E+00 2.143328850E+02
5.793470000E-03 2.500800000E+00 0.000000000E+00 2.139995547E+02
5.802140000E-03 2.498800000E+00 0.000000000E+00 2.136797802E+02
5.810810000E-03 2.496700000E+00 0.000000000E+00 2.133609600E+02
5.823430000E-03 2.493700000E+00 0.000000000E+00 2.128985838E+02
5.837220000E-03 2.490400000E+00 0.000000000E+00 2.123956267E+02
5.851010000E-03 2.487100000E+00 0.000000000E+00 2.118950403E+02
5.865980000E-03 2.483500000E+00 0.000000000E+00 2.113542835E+02
5.878300000E-03 2.480600000E+00 0.000000000E+00 2.109113179E+02
5.878600000E-03 2.480500000E+00 0.000000000E+00 2.109005546E+02
5.879770000E-03 2.480200000E+00 0.000000000E+00 2.108585880E+02
5.890200000E-03 2.477700000E+00 0.000000000E+00 2.104852127E+02
5.892940000E-03 2.477100000E+00 0.000000000E+00 2.103873449E+02
5.898780000E-03 2.475700000E+00 0.000000000E+00 2.101790540E+02
5.921950000E-03 2.470100000E+00 0.000000000E+00 2.093567153E+02
5.936460000E-03 2.466700000E+00 0.000000000E+00 2.088450019E+02
5.950960000E-03 2.463200000E+00 0.000000000E+00 2.083361340E+02
5.965470000E-03 2.459700000E+00 0.000000000E+00 2.078293915E+02
5.970570000E-03 2.458500000E+00 0.000000000E+00 2.076518657E+02
5.978230000E-03 2.456700000E+00 0.000000000E+00 2.073857981E+02
5.985890000E-03 2.454900000E+00 0.000000000E+00 2.071204115E+02
5.991670000E-03 2.453500000E+00 0.000000000E+00 2.069206081E+02
6.000320000E-03 2.451400000E+00 0.000000000E+00 2.066223135E+02
6.004650000E-03 2.449800000E+00 0.000000000E+00 2.064733165E+02
6.008980000E-03 2.448200000E+00 0.000000000E+00 2.063245343E+02
6.016230000E-03 2.445600000E+00 0.000000000E+00 2.060758980E+02
6.023490000E-03 2.442900000E+00 0.000000000E+00 2.058275186E+02
6.037990000E-03 2.437600000E+00 0.000000000E+00 2.053332318E+02
6.054650000E-03 2.431500000E+00 0.000000000E+00 2.047682360E+02
6.069560000E-03 2.426100000E+00 0.000000000E+00 2.042652186E+02
6.077010000E-03 2.423400000E+00 0.000000000E+00 2.040148033E+02
6.088180000E-03 2.419300000E+00 0.000000000E+00 2.036404968E+02
6.099360000E-03 2.415200000E+00 0.000000000E+00 2.032672280E+02
6.110840000E-03 2.411000000E+00 0.000000000E+00 2.028853644E+02
6.125740000E-03 2.405600000E+00 0.000000000E+00 2.023918743E+02
6.140630000E-03 2.400100000E+00 0.000000000E+00 2.019011079E+02
6.154030000E-03 2.395200000E+00 0.000000000E+00 2.014614813E+02
6.164330000E-03 2.391500000E+00 0.000000000E+00 2.011248587E+02
6.183040000E-03 2.384600000E+00 0.000000000E+00 2.005162509E+02
6.200210000E-03 2.378400000E+00 0.000000000E+00 1.999609691E+02
6.218580000E-03 2.371700000E+00 0.000000000E+00 1.993702742E+02
6.244660000E-03 2.362100000E+00 0.000000000E+00 1.985376306E+02
6.278190000E-03 2.349900000E+00 0.000000000E+00 1.974772984E+02
6.309130000E-03 2.337600000E+00 1.985130000E-07 1.965088689E+02
6.374170000E-03 2.306100000E+00 4.221790000E-05 1.945037550E+02
6.420890000E-03 2.278600000E+00 7.623050000E-04 1.930884971E+02
6.452590000E-03 2.255700000E+00 3.556410000E-03 1.921399004E+02
6.488620000E-03 2.225400000E+00 1.390860000E-02 1.910729862E+02
6.507970000E-03 2.209000000E+00 2.469370000E-02 1.905048733E+02
6.514330000E-03 2.204000000E+00 2.917140000E-02 1.903188816E+02
6.538350000E-03 2.188200000E+00 4.958370000E-02 1.896197053E+02
6.547410000E-03 2.184400000E+00 5.841550000E-02 1.893573184E+02
6.576770000E-03 2.179100000E+00 8.752130000E-02 1.885119899E+02
6.597250000E-03 2.182200000E+00 1.054060000E-01 1.879267877E+02
6.626250000E-03 2.192400000E+00 1.231240000E-01 1.871043199E+02
6.659060000E-03 2.205200000E+00 1.324480000E-01 1.861824342E+02
6.687230000E-03 2.213100000E+00 1.342530000E-01 1.853981394E+02
6.714520000E-03 2.217600000E+00 1.333700000E-01 1.846446209E+02
6.727430000E-03 2.218500000E+00 1.325280000E-01 1.842902862E+02
6.744570000E-03 2.219200000E+00 1.312930000E-01 1.838219486E+02
6.753140000E-03 2.219500000E+00 1.306760000E-01 1.835886713E+02
6.761710000E-03 2.219800000E+00 1.300560000E-01 1.833559854E+02
6.795000000E-03 2.217400000E+00 1.274900000E-01 1.824576895E+02
6.811640000E-03 2.216200000E+00 1.262060000E-01 1.820119677E+02
6.828280000E-03 2.215000000E+00 1.249230000E-01 1.815684184E+02
6.844920000E-03 2.213700000E+00 1.236400000E-01 1.811270256E+02
6.852530000E-03 2.213200000E+00 1.230530000E-01 1.809258770E+02
6.864660000E-03 2.212300000E+00 1.221180000E-01 1.806061771E+02
6.878980000E-03 2.210200000E+00 1.210810000E-01 1.802302085E+02
6.886920000E-03 2.209000000E+00 1.205060000E-01 1.800224193E+02
6.894850000E-03 2.207900000E+00 1.199310000E-01 1.798153694E+02
6.903180000E-03 2.206600000E+00 1.193290000E-01 1.795983880E+02
6.911500000E-03 2.205400000E+00 1.187260000E-01 1.793821891E+02
6.923980000E-03 2.203600000E+00 1.178230000E-01 1.790588650E+02
6.928140000E-03 2.203000000E+00 1.175210000E-01 1.789513491E+02
6.944780000E-03 2.200500000E+00 1.163160000E-01 1.785225738E+02
6.945820000E-03 2.200400000E+00 1.162410000E-01 1.784958435E+02
6.961430000E-03 2.197800000E+00 1.151360000E-01 1.780955924E+02
6.964680000E-03 2.197200000E+00 1.149120000E-01 1.780124859E+02
6.970380000E-03 2.196200000E+00 1.145210000E-01 1.778669169E+02
6.987470000E-03 2.193100000E+00 1.133460000E-01 1.774318888E+02
7.004330000E-03 2.190000000E+00 1.121870000E-01 1.770047956E+02
7.021200000E-03 2.186900000E+00 1.110280000E-01 1.765795021E+02
