# Data retrieved from https://www-nds.iaea.org/epdl97/za1to100.htm 03/01/2021
# Element, Si  (Z = 14) 
# Atomic weight, g mol-1 = 28.086 
# Nominal density, g cm-3 =  2.33000E+0 
# Relativistic correction estimate f_rel(5CL)*,  e atom-1 =  0 
# Nuclear Thomson correction f_NT*, e atom-1 =  0 
#    E [keV]      f1 [e atom-1]      f2 [e atom-1]    Wavelength [nm] 
1.000000000E-03 2.352700000E+00 0.000000000E+00 1.239800000E+03
1.125000000E-03 2.347300000E+00 0.000000000E+00 1.102044444E+03
1.265630000E-03 2.341200000E+00 0.000000000E+00 9.795911917E+02
1.423830000E-03 2.334400000E+00 0.000000000E+00 8.707500193E+02
1.500000000E-03 2.331100000E+00 0.000000000E+00 8.265333333E+02
1.601810000E-03 2.324100000E+00 0.000000000E+00 7.739994132E+02
1.802030000E-03 2.310400000E+00 0.000000000E+00 6.880018646E+02
2.017710000E-03 2.295600000E+00 0.000000000E+00 6.144589659E+02
2.206430000E-03 2.282500000E+00 0.000000000E+00 5.619031648E+02
2.371550000E-03 2.266900000E+00 0.000000000E+00 5.227804600E+02
2.516040000E-03 2.252100000E+00 0.000000000E+00 4.927584617E+02
2.642470000E-03 2.239100000E+00 0.000000000E+00 4.691822424E+02
2.863710000E-03 2.214800000E+00 0.000000000E+00 4.329348991E+02
3.029650000E-03 2.192800000E+00 0.000000000E+00 4.092221874E+02
3.164060000E-03 2.175000000E+00 0.000000000E+00 3.918383343E+02
3.247430000E-03 2.161400000E+00 0.000000000E+00 3.817788220E+02
3.317440000E-03 2.149900000E+00 0.000000000E+00 3.737219060E+02
3.369940000E-03 2.141400000E+00 0.000000000E+00 3.678997252E+02
3.409320000E-03 2.134900000E+00 0.000000000E+00 3.636502294E+02
3.438850000E-03 2.130100000E+00 0.000000000E+00 3.605275019E+02
3.483150000E-03 2.122900000E+00 0.000000000E+00 3.559421788E+02
3.505300000E-03 2.119200000E+00 0.000000000E+00 3.536929792E+02
3.527450000E-03 2.115600000E+00 0.000000000E+00 3.514720265E+02
3.536130000E-03 2.114200000E+00 0.000000000E+00 3.506092819E+02
3.544810000E-03 2.112800000E+00 0.000000000E+00 3.497507624E+02
3.553490000E-03 2.111300000E+00 0.000000000E+00 3.488964370E+02
3.562180000E-03 2.109600000E+00 0.000000000E+00 3.480452981E+02
3.562970000E-03 2.109400000E+00 0.000000000E+00 3.479681277E+02
3.571740000E-03 2.107600000E+00 0.000000000E+00 3.471137317E+02
3.580510000E-03 2.105900000E+00 0.000000000E+00 3.462635211E+02
3.589280000E-03 2.104100000E+00 0.000000000E+00 3.454174653E+02
3.598050000E-03 2.102300000E+00 0.000000000E+00 3.445755340E+02
3.606820000E-03 2.100600000E+00 0.000000000E+00 3.437376969E+02
3.610850000E-03 2.099800000E+00 0.000000000E+00 3.433540579E+02
3.616900000E-03 2.098500000E+00 0.000000000E+00 3.427797285E+02
3.622950000E-03 2.097300000E+00 0.000000000E+00 3.422073172E+02
3.628040000E-03 2.096300000E+00 0.000000000E+00 3.417272136E+02
3.633130000E-03 2.095300000E+00 0.000000000E+00 3.412484552E+02
3.639710000E-03 2.093900000E+00 0.000000000E+00 3.406315338E+02
3.641900000E-03 2.093500000E+00 0.000000000E+00 3.404267003E+02
3.649570000E-03 2.092000000E+00 0.000000000E+00 3.397112537E+02
3.651770000E-03 2.091500000E+00 0.000000000E+00 3.395065954E+02
3.653680000E-03 2.091100000E+00 0.000000000E+00 3.393291148E+02
3.656560000E-03 2.090500000E+00 0.000000000E+00 3.390618505E+02
3.658000000E-03 2.090300000E+00 0.000000000E+00 3.389283762E+02
3.658720000E-03 2.090100000E+00 0.000000000E+00 3.388616784E+02
3.659990000E-03 2.089900000E+00 0.000000000E+00 3.387440949E+02
3.662040000E-03 2.089400000E+00 0.000000000E+00 3.385544669E+02
3.668210000E-03 2.088200000E+00 0.000000000E+00 3.379850118E+02
3.670150000E-03 2.087800000E+00 0.000000000E+00 3.378063567E+02
3.673540000E-03 2.087100000E+00 0.000000000E+00 3.374946237E+02
3.678640000E-03 2.086100000E+00 0.000000000E+00 3.370267273E+02
3.683730000E-03 2.085100000E+00 0.000000000E+00 3.365610400E+02
3.689120000E-03 2.084000000E+00 0.000000000E+00 3.360693065E+02
3.694520000E-03 2.082900000E+00 0.000000000E+00 3.355780995E+02
3.703290000E-03 2.081100000E+00 0.000000000E+00 3.347833953E+02
3.712060000E-03 2.079400000E+00 0.000000000E+00 3.339924462E+02
3.720830000E-03 2.077600000E+00 0.000000000E+00 3.332052257E+02
3.733980000E-03 2.074900000E+00 0.000000000E+00 3.320317731E+02
3.738370000E-03 2.074000000E+00 0.000000000E+00 3.316418653E+02
3.740920000E-03 2.073500000E+00 0.000000000E+00 3.314158015E+02
3.746020000E-03 2.072500000E+00 0.000000000E+00 3.309645971E+02
3.751070000E-03 2.071500000E+00 0.000000000E+00 3.305190252E+02
3.756080000E-03 2.070500000E+00 0.000000000E+00 3.300781666E+02
3.766030000E-03 2.068500000E+00 0.000000000E+00 3.292060870E+02
3.775820000E-03 2.066500000E+00 0.000000000E+00 3.283525168E+02
3.785460000E-03 2.064600000E+00 0.000000000E+00 3.275163388E+02
3.794950000E-03 2.062600000E+00 0.000000000E+00 3.266973214E+02
3.799610000E-03 2.061700000E+00 0.000000000E+00 3.262966462E+02
3.808850000E-03 2.059800000E+00 0.000000000E+00 3.255050737E+02
3.815660000E-03 2.058500000E+00 0.000000000E+00 3.249241285E+02
3.820170000E-03 2.057600000E+00 0.000000000E+00 3.245405309E+02
3.829110000E-03 2.055700000E+00 0.000000000E+00 3.237828111E+02
3.837920000E-03 2.054000000E+00 0.000000000E+00 3.230395631E+02
3.855260000E-03 2.050500000E+00 0.000000000E+00 3.215866115E+02
3.872050000E-03 2.047100000E+00 0.000000000E+00 3.201921463E+02
3.904590000E-03 2.040000000E+00 0.000000000E+00 3.175237349E+02
3.965600000E-03 2.025300000E+00 0.000000000E+00 3.126386928E+02
4.185860000E-03 1.970700000E+00 0.000000000E+00 2.961876412E+02
4.232530000E-03 1.957500000E+00 0.000000000E+00 2.929217277E+02
4.272560000E-03 1.946100000E+00 0.000000000E+00 2.901773176E+02
4.332620000E-03 1.928700000E+00 0.000000000E+00 2.861547978E+02
4.362650000E-03 1.919500000E+00 0.000000000E+00 2.841850710E+02
4.377670000E-03 1.914900000E+00 0.000000000E+00 2.832100181E+02
4.392680000E-03 1.910200000E+00 0.000000000E+00 2.822422758E+02
4.414300000E-03 1.903600000E+00 0.000000000E+00 2.808599325E+02
4.425120000E-03 1.900200000E+00 0.000000000E+00 2.801731930E+02
4.435930000E-03 1.896900000E+00 0.000000000E+00 2.794904338E+02
4.446740000E-03 1.893300000E+00 0.000000000E+00 2.788109941E+02
4.455580000E-03 1.890300000E+00 0.000000000E+00 2.782578250E+02
4.464420000E-03 1.887300000E+00 0.000000000E+00 2.777068466E+02
4.471800000E-03 1.884800000E+00 0.000000000E+00 2.772485353E+02
4.479180000E-03 1.882300000E+00 0.000000000E+00 2.767917342E+02
4.489990000E-03 1.878600000E+00 0.000000000E+00 2.761253366E+02
4.500800000E-03 1.875000000E+00 0.000000000E+00 2.754621401E+02
4.511610000E-03 1.871300000E+00 0.000000000E+00 2.748021216E+02
4.514320000E-03 1.870400000E+00 0.000000000E+00 2.746371547E+02
4.522420000E-03 1.867600000E+00 0.000000000E+00 2.741452585E+02
4.524720000E-03 1.866800000E+00 0.000000000E+00 2.740059053E+02
4.528730000E-03 1.865500000E+00 0.000000000E+00 2.737632846E+02
4.531750000E-03 1.864400000E+00 0.000000000E+00 2.735808463E+02
4.536260000E-03 1.862900000E+00 0.000000000E+00 2.733088491E+02
4.540780000E-03 1.861400000E+00 0.000000000E+00 2.730367910E+02
4.544300000E-03 1.860200000E+00 0.000000000E+00 2.728252976E+02
4.546940000E-03 1.859300000E+00 0.000000000E+00 2.726668925E+02
4.550900000E-03 1.857900000E+00 0.000000000E+00 2.724296293E+02
4.552880000E-03 1.857200000E+00 0.000000000E+00 2.723111525E+02
4.554860000E-03 1.856500000E+00 0.000000000E+00 2.721927787E+02
4.560270000E-03 1.854600000E+00 0.000000000E+00 2.718698674E+02
4.562970000E-03 1.853600000E+00 0.000000000E+00 2.717089966E+02
4.565670000E-03 1.852600000E+00 0.000000000E+00 2.715483160E+02
4.576480000E-03 1.848800000E+00 0.000000000E+00 2.709068979E+02
4.587300000E-03 1.844900000E+00 0.000000000E+00 2.702679136E+02
4.602600000E-03 1.839400000E+00 0.000000000E+00 2.693694868E+02
4.608920000E-03 1.837100000E+00 0.000000000E+00 2.690001128E+02
4.612590000E-03 1.835800000E+00 0.000000000E+00 2.687860833E+02
4.613500000E-03 1.835500000E+00 0.000000000E+00 2.687330660E+02
4.624400000E-03 1.831600000E+00 0.000000000E+00 2.680996454E+02
4.638950000E-03 1.826400000E+00 0.000000000E+00 2.672587547E+02
4.646190000E-03 1.823800000E+00 0.000000000E+00 2.668422944E+02
4.649860000E-03 1.822500000E+00 0.000000000E+00 2.666316835E+02
4.707520000E-03 1.800500000E+00 0.000000000E+00 2.633658487E+02
4.731430000E-03 1.790900000E+00 0.000000000E+00 2.620349450E+02
4.772410000E-03 1.774300000E+00 0.000000000E+00 2.597848886E+02
4.806810000E-03 1.760100000E+00 0.000000000E+00 2.579257345E+02
4.821560000E-03 1.753600000E+00 0.000000000E+00 2.571366943E+02
4.836310000E-03 1.747200000E+00 0.000000000E+00 2.563524671E+02
4.836340000E-03 1.747200000E+00 0.000000000E+00 2.563508769E+02
4.848240000E-03 1.742000000E+00 0.000000000E+00 2.557216639E+02
4.860150000E-03 1.736800000E+00 0.000000000E+00 2.550950074E+02
4.866010000E-03 1.734300000E+00 0.000000000E+00 2.547878036E+02
4.871870000E-03 1.731700000E+00 0.000000000E+00 2.544813388E+02
4.883960000E-03 1.726300000E+00 0.000000000E+00 2.538513829E+02
4.895860000E-03 1.720900000E+00 0.000000000E+00 2.532343654E+02
4.907840000E-03 1.715300000E+00 0.000000000E+00 2.526162222E+02
4.919830000E-03 1.709700000E+00 0.000000000E+00 2.520005773E+02
4.931820000E-03 1.704100000E+00 0.000000000E+00 2.513879258E+02
4.937820000E-03 1.701300000E+00 0.000000000E+00 2.510824615E+02
4.946810000E-03 1.697000000E+00 0.000000000E+00 2.506261611E+02
4.955930000E-03 1.692700000E+00 0.000000000E+00 2.501649539E+02
4.961800000E-03 1.689900000E+00 0.000000000E+00 2.498689992E+02
4.967800000E-03 1.687000000E+00 0.000000000E+00 2.495672129E+02
4.976790000E-03 1.682600000E+00 0.000000000E+00 2.491163983E+02
4.982790000E-03 1.679600000E+00 0.000000000E+00 2.488164261E+02
4.987280000E-03 1.677200000E+00 0.000000000E+00 2.485924191E+02
4.989530000E-03 1.676000000E+00 0.000000000E+00 2.484803178E+02
4.990660000E-03 1.675500000E+00 0.000000000E+00 2.484240561E+02
4.991220000E-03 1.675200000E+00 0.000000000E+00 2.483961837E+02
4.991640000E-03 1.674900000E+00 0.000000000E+00 2.483752835E+02
4.991780000E-03 1.674900000E+00 0.000000000E+00 2.483683175E+02
4.992000000E-03 1.674800000E+00 0.000000000E+00 2.483573718E+02
4.992180000E-03 1.674700000E+00 0.000000000E+00 2.483484169E+02
4.992550000E-03 1.674500000E+00 0.000000000E+00 2.483300117E+02
5.003770000E-03 1.668600000E+00 0.000000000E+00 2.477731790E+02
5.006770000E-03 1.667000000E+00 0.000000000E+00 2.476247161E+02
5.015760000E-03 1.662300000E+00 0.000000000E+00 2.471808858E+02
5.020260000E-03 1.659900000E+00 0.000000000E+00 2.469593208E+02
5.028130000E-03 1.655800000E+00 0.000000000E+00 2.465727815E+02
5.034030000E-03 1.652700000E+00 0.000000000E+00 2.462837925E+02
5.042880000E-03 1.648100000E+00 0.000000000E+00 2.458515769E+02
5.051740000E-03 1.643400000E+00 0.000000000E+00 2.454203898E+02
5.063730000E-03 1.637100000E+00 0.000000000E+00 2.448392786E+02
5.075720000E-03 1.630900000E+00 0.000000000E+00 2.442609127E+02
5.087710000E-03 1.624600000E+00 0.000000000E+00 2.436852729E+02
5.099700000E-03 1.618300000E+00 0.000000000E+00 2.431123399E+02
5.109670000E-03 1.613100000E+00 0.000000000E+00 2.426379786E+02
5.111660000E-03 1.612000000E+00 0.000000000E+00 2.425435182E+02
5.111690000E-03 1.612000000E+00 0.000000000E+00 2.425420947E+02
5.116940000E-03 1.609300000E+00 0.000000000E+00 2.422932456E+02
5.122440000E-03 1.606400000E+00 0.000000000E+00 2.420330936E+02
5.134700000E-03 1.599600000E+00 0.000000000E+00 2.414551970E+02
5.148530000E-03 1.591600000E+00 0.000000000E+00 2.408065992E+02
5.160960000E-03 1.584000000E+00 0.000000000E+00 2.402266245E+02
5.173390000E-03 1.576500000E+00 0.000000000E+00 2.396494368E+02
5.185820000E-03 1.569000000E+00 0.000000000E+00 2.390750161E+02
5.198250000E-03 1.561400000E+00 0.000000000E+00 2.385033425E+02
5.210670000E-03 1.553900000E+00 0.000000000E+00 2.379348529E+02
5.223100000E-03 1.546400000E+00 0.000000000E+00 2.373686125E+02
5.235530000E-03 1.538900000E+00 0.000000000E+00 2.368050608E+02
5.247960000E-03 1.531300000E+00 0.000000000E+00 2.362441787E+02
5.268140000E-03 1.519100000E+00 0.000000000E+00 2.353392279E+02
5.272810000E-03 1.516100000E+00 0.000000000E+00 2.351307936E+02
5.285240000E-03 1.508000000E+00 0.000000000E+00 2.345778054E+02
5.297670000E-03 1.499300000E+00 0.000000000E+00 2.340274121E+02
5.309910000E-03 1.490800000E+00 0.000000000E+00 2.334879499E+02
5.322430000E-03 1.482100000E+00 0.000000000E+00 2.329387141E+02
5.334940000E-03 1.473400000E+00 0.000000000E+00 2.323924918E+02
5.355660000E-03 1.459000000E+00 0.000000000E+00 2.314934107E+02
5.405510000E-03 1.423800000E+00 0.000000000E+00 2.293585619E+02
5.417410000E-03 1.414400000E+00 0.000000000E+00 2.288547479E+02
5.438230000E-03 1.397900000E+00 0.000000000E+00 2.279785886E+02
5.453840000E-03 1.385500000E+00 0.000000000E+00 2.273260675E+02
5.465550000E-03 1.376200000E+00 0.000000000E+00 2.268390189E+02
5.483120000E-03 1.362300000E+00 0.000000000E+00 2.261121405E+02
5.491900000E-03 1.355300000E+00 0.000000000E+00 2.257506510E+02
5.500690000E-03 1.348400000E+00 0.000000000E+00 2.253899056E+02
5.500710000E-03 1.348300000E+00 0.000000000E+00 2.253890861E+02
5.514250000E-03 1.337000000E+00 0.000000000E+00 2.248356531E+02
5.521020000E-03 1.331000000E+00 0.000000000E+00 2.245599545E+02
5.527790000E-03 1.324900000E+00 0.000000000E+00 2.242849312E+02
5.530440000E-03 1.322500000E+00 0.000000000E+00 2.241774615E+02
5.536230000E-03 1.317300000E+00 0.000000000E+00 2.239430081E+02
5.541320000E-03 1.312700000E+00 0.000000000E+00 2.237373045E+02
5.557660000E-03 1.298000000E+00 0.000000000E+00 2.230794975E+02
5.565960000E-03 1.290500000E+00 0.000000000E+00 2.227468397E+02
5.571270000E-03 1.285800000E+00 0.000000000E+00 2.225345388E+02
5.584890000E-03 1.273500000E+00 0.000000000E+00 2.219918387E+02
5.598500000E-03 1.261300000E+00 0.000000000E+00 2.214521747E+02
5.607900000E-03 1.252100000E+00 0.000000000E+00 2.210809751E+02
5.614950000E-03 1.244500000E+00 0.000000000E+00 2.208033909E+02
5.625520000E-03 1.233100000E+00 0.000000000E+00 2.203885152E+02
5.630810000E-03 1.227400000E+00 0.000000000E+00 2.201814659E+02
5.636100000E-03 1.221700000E+00 0.000000000E+00 2.199748053E+02
5.644520000E-03 1.212600000E+00 0.000000000E+00 2.196466661E+02
5.648740000E-03 1.208100000E+00 0.000000000E+00 2.194825749E+02
5.650840000E-03 1.205800000E+00 0.000000000E+00 2.194010094E+02
5.654660000E-03 1.201700000E+00 0.000000000E+00 2.192527933E+02
5.660670000E-03 1.195200000E+00 0.000000000E+00 2.190200100E+02
5.663670000E-03 1.191900000E+00 0.000000000E+00 2.189039969E+02
5.665920000E-03 1.189500000E+00 0.000000000E+00 2.188170677E+02
5.666110000E-03 1.189300000E+00 0.000000000E+00 2.188097301E+02
5.667420000E-03 1.187900000E+00 0.000000000E+00 2.187591532E+02
5.680550000E-03 1.173700000E+00 0.000000000E+00 2.182535142E+02
5.684020000E-03 1.170000000E+00 0.000000000E+00 2.181202740E+02
5.694430000E-03 1.158700000E+00 0.000000000E+00 2.177215279E+02
5.699640000E-03 1.153100000E+00 0.000000000E+00 2.175225102E+02
5.708750000E-03 1.143300000E+00 0.000000000E+00 2.171753887E+02
5.715580000E-03 1.135900000E+00 0.000000000E+00 2.169158686E+02
5.725820000E-03 1.124900000E+00 0.000000000E+00 2.165279384E+02
5.736070000E-03 1.113800000E+00 0.000000000E+00 2.161410164E+02
5.748230000E-03 1.100700000E+00 0.000000000E+00 2.156837844E+02
5.761850000E-03 1.086000000E+00 0.000000000E+00 2.151739459E+02
5.768890000E-03 1.078100000E+00 0.000000000E+00 2.149113608E+02
5.775580000E-03 1.069700000E+00 0.000000000E+00 2.146624235E+02
5.782690000E-03 1.060000000E+00 0.000000000E+00 2.143984893E+02
5.796480000E-03 1.041300000E+00 0.000000000E+00 2.138884288E+02
5.802680000E-03 1.032900000E+00 0.000000000E+00 2.136598951E+02
5.808770000E-03 1.024600000E+00 0.000000000E+00 2.134358909E+02
5.812560000E-03 1.019400000E+00 0.000000000E+00 2.132967230E+02
5.826460000E-03 1.000600000E+00 0.000000000E+00 2.127878678E+02
5.840350000E-03 9.817000000E-01 0.000000000E+00 2.122817982E+02
5.847260000E-03 9.723000000E-01 0.000000000E+00 2.120309341E+02
5.854660000E-03 9.623000000E-01 0.000000000E+00 2.117629376E+02
5.867640000E-03 9.447000000E-01 0.000000000E+00 2.112944898E+02
5.870530000E-03 9.407000000E-01 0.000000000E+00 2.111904717E+02
5.873280000E-03 9.370000000E-01 0.000000000E+00 2.110915877E+02
5.876040000E-03 9.332000000E-01 0.000000000E+00 2.109924371E+02
5.890430000E-03 9.137000000E-01 0.000000000E+00 2.104769940E+02
5.897570000E-03 9.025000000E-01 0.000000000E+00 2.102221763E+02
5.904830000E-03 8.911000000E-01 0.000000000E+00 2.099637077E+02
5.912020000E-03 8.791000000E-01 0.000000000E+00 2.097083569E+02
5.919220000E-03 8.671000000E-01 0.000000000E+00 2.094532726E+02
5.924540000E-03 8.583000000E-01 0.000000000E+00 2.092651919E+02
5.932510000E-03 8.450000000E-01 0.000000000E+00 2.089840557E+02
5.940490000E-03 8.317000000E-01 0.000000000E+00 2.087033225E+02
5.945960000E-03 8.226000000E-01 0.000000000E+00 2.085113253E+02
5.954180000E-03 8.090000000E-01 0.000000000E+00 2.082234665E+02
5.958290000E-03 8.021000000E-01 0.000000000E+00 2.080798350E+02
5.962400000E-03 7.953000000E-01 0.000000000E+00 2.079364014E+02
5.969590000E-03 7.833000000E-01 0.000000000E+00 2.076859550E+02
5.973190000E-03 7.773000000E-01 0.000000000E+00 2.075607841E+02
5.974990000E-03 7.743000000E-01 0.000000000E+00 2.074982552E+02
5.978590000E-03 7.683000000E-01 0.000000000E+00 2.073733104E+02
5.988820000E-03 7.500000000E-01 0.000000000E+00 2.070190789E+02
5.989410000E-03 7.489000000E-01 0.000000000E+00 2.069986860E+02
5.991400000E-03 7.451000000E-01 0.000000000E+00 2.069299329E+02
6.005570000E-03 7.179000000E-01 0.000000000E+00 2.064416866E+02
6.007990000E-03 7.131000000E-01 0.000000000E+00 2.063585326E+02
6.012210000E-03 7.047000000E-01 0.000000000E+00 2.062136885E+02
6.024880000E-03 6.795000000E-01 0.000000000E+00 2.057800321E+02
6.029670000E-03 6.700000000E-01 0.000000000E+00 2.056165594E+02
6.038040000E-03 6.534000000E-01 0.000000000E+00 2.053315314E+02
6.044310000E-03 6.410000000E-01 0.000000000E+00 2.051185330E+02
6.053730000E-03 6.216000000E-01 0.000000000E+00 2.047993551E+02
6.058430000E-03 6.106000000E-01 0.000000000E+00 2.046404762E+02
6.063140000E-03 5.997000000E-01 0.000000000E+00 2.044815063E+02
6.070340000E-03 5.830000000E-01 0.000000000E+00 2.042389718E+02
6.077530000E-03 5.653000000E-01 0.000000000E+00 2.039973476E+02
6.092050000E-03 5.291000000E-01 0.000000000E+00 2.035111334E+02
6.103830000E-03 4.997000000E-01 0.000000000E+00 2.031183699E+02
6.108520000E-03 4.880000000E-01 0.000000000E+00 2.029624197E+02
6.113210000E-03 4.763000000E-01 0.000000000E+00 2.028067088E+02
6.118820000E-03 4.623000000E-01 0.000000000E+00 2.026207667E+02
6.127230000E-03 4.414000000E-01 0.000000000E+00 2.023426573E+02
6.137920000E-03 4.147000000E-01 0.000000000E+00 2.019902508E+02
6.144920000E-03 3.972000000E-01 0.000000000E+00 2.017601531E+02
6.153920000E-03 3.748000000E-01 0.000000000E+00 2.014650824E+02
6.165460000E-03 3.415000000E-01 0.000000000E+00 2.010879967E+02
6.174110000E-03 3.160000000E-01 0.000000000E+00 2.008062701E+02
6.180290000E-03 2.977000000E-01 0.000000000E+00 2.006054732E+02
6.207330000E-03 2.120000000E-01 0.000000000E+00 1.997316076E+02
6.212800000E-03 1.920000000E-01 0.000000000E+00 1.995557559E+02
6.229280000E-03 1.321000000E-01 0.000000000E+00 1.990278170E+02
6.254000000E-03 3.740000000E-02 0.000000000E+00 1.982411257E+02
6.292330000E-03 -1.303000000E-01 2.569330000E-05 1.970335313E+02
6.320670000E-03 -2.808000000E-01 2.618170000E-04 1.961500917E+02
6.347860000E-03 -4.536000000E-01 1.835180000E-03 1.953099155E+02
6.378460000E-03 -6.988000000E-01 1.200140000E-02 1.943729364E+02
6.396230000E-03 -8.764000000E-01 3.089670000E-02 1.938329297E+02
6.413250000E-03 -1.076700000E+00 6.928320000E-02 1.933185203E+02
6.437590000E-03 -1.415400000E+00 1.881280000E-01 1.925875988E+02
