# Data retrieved from https://www-nds.iaea.org/epdl97/za1to100.htm 03/01/2021
# Element, Sn  (Z = 50) 
# Atomic weight, g mol-1 = 118.69 
# Nominal density, g cm-3 =  7.31000E+0 
# Relativistic correction estimate f_rel(5CL)*,  e atom-1 =  0 
# Nuclear Thomson correction f_NT*, e atom-1 =  0 
#    E [keV]      f1 [e atom-1]      f2 [e atom-1]    Wavelength [nm] 
1.000000000E-03 3.730200000E+00 0.000000000E+00 1.239800000E+03
1.125000000E-03 3.721900000E+00 0.000000000E+00 1.102044444E+03
1.265630000E-03 3.712500000E+00 0.000000000E+00 9.795911917E+02
1.423830000E-03 3.702000000E+00 0.000000000E+00 8.707500193E+02
1.500000000E-03 3.696900000E+00 0.000000000E+00 8.265333333E+02
1.601810000E-03 3.687800000E+00 0.000000000E+00 7.739994132E+02
1.767930000E-03 3.672900000E+00 0.000000000E+00 7.012721092E+02
1.913290000E-03 3.658900000E+00 0.000000000E+00 6.479937699E+02
2.040480000E-03 3.643700000E+00 0.000000000E+00 6.076021328E+02
2.263060000E-03 3.615400000E+00 0.000000000E+00 5.478423020E+02
2.430000000E-03 3.591700000E+00 0.000000000E+00 5.102057613E+02
2.555200000E-03 3.572300000E+00 0.000000000E+00 4.852066374E+02
2.743010000E-03 3.540400000E+00 0.000000000E+00 4.519852279E+02
2.836910000E-03 3.523200000E+00 0.000000000E+00 4.370247911E+02
2.930810000E-03 3.505800000E+00 0.000000000E+00 4.230229868E+02
2.938030000E-03 3.504400000E+00 0.000000000E+00 4.219834379E+02
2.945240000E-03 3.503100000E+00 0.000000000E+00 4.209504149E+02
2.952450000E-03 3.501700000E+00 0.000000000E+00 4.199224373E+02
2.959670000E-03 3.500400000E+00 0.000000000E+00 4.188980528E+02
2.966880000E-03 3.499100000E+00 0.000000000E+00 4.178800626E+02
2.976610000E-03 3.497100000E+00 0.000000000E+00 4.165140882E+02
2.988520000E-03 3.494500000E+00 0.000000000E+00 4.148541753E+02
2.995740000E-03 3.493000000E+00 0.000000000E+00 4.138543398E+02
3.002950000E-03 3.491500000E+00 0.000000000E+00 4.128606870E+02
3.010160000E-03 3.489900000E+00 0.000000000E+00 4.118717942E+02
3.017380000E-03 3.488400000E+00 0.000000000E+00 4.108862656E+02
3.024590000E-03 3.486800000E+00 0.000000000E+00 4.099067973E+02
3.039020000E-03 3.483800000E+00 0.000000000E+00 4.079604609E+02
3.046230000E-03 3.482200000E+00 0.000000000E+00 4.069948756E+02
3.053450000E-03 3.480700000E+00 0.000000000E+00 4.060325206E+02
3.060660000E-03 3.479100000E+00 0.000000000E+00 4.050760294E+02
3.067870000E-03 3.477600000E+00 0.000000000E+00 4.041240339E+02
3.075090000E-03 3.476100000E+00 0.000000000E+00 4.031751916E+02
3.166580000E-03 3.456000000E+00 0.000000000E+00 3.915265049E+02
3.235200000E-03 3.440400000E+00 0.000000000E+00 3.832220574E+02
3.286670000E-03 3.428600000E+00 0.000000000E+00 3.772207128E+02
3.325270000E-03 3.419300000E+00 0.000000000E+00 3.728419046E+02
3.354220000E-03 3.412300000E+00 0.000000000E+00 3.696239364E+02
3.375930000E-03 3.406800000E+00 0.000000000E+00 3.672469512E+02
3.392210000E-03 3.402700000E+00 0.000000000E+00 3.654844482E+02
3.419200000E-03 3.395900000E+00 0.000000000E+00 3.625994385E+02
3.428850000E-03 3.393300000E+00 0.000000000E+00 3.615789550E+02
3.434960000E-03 3.391700000E+00 0.000000000E+00 3.609357896E+02
3.441060000E-03 3.390000000E+00 0.000000000E+00 3.602959553E+02
3.449530000E-03 3.387800000E+00 0.000000000E+00 3.594112821E+02
3.458000000E-03 3.385500000E+00 0.000000000E+00 3.585309427E+02
3.466470000E-03 3.383300000E+00 0.000000000E+00 3.576549054E+02
3.474940000E-03 3.381000000E+00 0.000000000E+00 3.567831387E+02
3.483410000E-03 3.378700000E+00 0.000000000E+00 3.559156114E+02
3.491880000E-03 3.376500000E+00 0.000000000E+00 3.550522927E+02
3.496120000E-03 3.375300000E+00 0.000000000E+00 3.546216949E+02
3.500350000E-03 3.374200000E+00 0.000000000E+00 3.541931521E+02
3.504590000E-03 3.373100000E+00 0.000000000E+00 3.537646344E+02
3.508820000E-03 3.371900000E+00 0.000000000E+00 3.533381593E+02
3.513060000E-03 3.370800000E+00 0.000000000E+00 3.529117066E+02
3.517290000E-03 3.369700000E+00 0.000000000E+00 3.524872842E+02
3.525760000E-03 3.367300000E+00 0.000000000E+00 3.516404974E+02
3.526820000E-03 3.367100000E+00 0.000000000E+00 3.515348104E+02
3.528670000E-03 3.366500000E+00 0.000000000E+00 3.513505088E+02
3.532150000E-03 3.365600000E+00 0.000000000E+00 3.510043458E+02
3.532670000E-03 3.365400000E+00 0.000000000E+00 3.509526789E+02
3.533640000E-03 3.365200000E+00 0.000000000E+00 3.508563408E+02
3.533940000E-03 3.365100000E+00 0.000000000E+00 3.508265562E+02
3.534490000E-03 3.364900000E+00 0.000000000E+00 3.507719643E+02
3.535520000E-03 3.364700000E+00 0.000000000E+00 3.506697742E+02
3.537310000E-03 3.364200000E+00 0.000000000E+00 3.504923233E+02
3.544820000E-03 3.362100000E+00 0.000000000E+00 3.497497757E+02
3.547990000E-03 3.361200000E+00 0.000000000E+00 3.494372870E+02
3.551700000E-03 3.360200000E+00 0.000000000E+00 3.490722752E+02
3.555400000E-03 3.359100000E+00 0.000000000E+00 3.487090060E+02
3.559640000E-03 3.357900000E+00 0.000000000E+00 3.482936477E+02
3.563870000E-03 3.356700000E+00 0.000000000E+00 3.478802538E+02
3.568110000E-03 3.355500000E+00 0.000000000E+00 3.474668662E+02
3.572340000E-03 3.354200000E+00 0.000000000E+00 3.470554315E+02
3.576580000E-03 3.353000000E+00 0.000000000E+00 3.466440007E+02
3.585050000E-03 3.350500000E+00 0.000000000E+00 3.458250234E+02
3.593520000E-03 3.348100000E+00 0.000000000E+00 3.450099067E+02
3.597750000E-03 3.346800000E+00 0.000000000E+00 3.446042666E+02
3.608340000E-03 3.343800000E+00 0.000000000E+00 3.435928987E+02
3.610460000E-03 3.343100000E+00 0.000000000E+00 3.433911468E+02
3.612590000E-03 3.342500000E+00 0.000000000E+00 3.431886818E+02
3.616780000E-03 3.341300000E+00 0.000000000E+00 3.427911015E+02
3.620840000E-03 3.340100000E+00 0.000000000E+00 3.424067343E+02
3.624780000E-03 3.339000000E+00 0.000000000E+00 3.420345511E+02
3.628590000E-03 3.337900000E+00 0.000000000E+00 3.416754166E+02
3.632280000E-03 3.336800000E+00 0.000000000E+00 3.413283117E+02
3.635860000E-03 3.335700000E+00 0.000000000E+00 3.409922274E+02
3.746770000E-03 3.301700000E+00 0.000000000E+00 3.308983471E+02
3.755990000E-03 3.298800000E+00 0.000000000E+00 3.300860758E+02
3.765210000E-03 3.295900000E+00 0.000000000E+00 3.292777826E+02
3.774430000E-03 3.293000000E+00 0.000000000E+00 3.284734384E+02
3.783660000E-03 3.290100000E+00 0.000000000E+00 3.276721481E+02
3.792880000E-03 3.287100000E+00 0.000000000E+00 3.268756196E+02
3.799720000E-03 3.284900000E+00 0.000000000E+00 3.262872001E+02
3.806550000E-03 3.282600000E+00 0.000000000E+00 3.257017509E+02
3.813550000E-03 3.280300000E+00 0.000000000E+00 3.251039058E+02
3.820550000E-03 3.278000000E+00 0.000000000E+00 3.245082514E+02
3.829770000E-03 3.274900000E+00 0.000000000E+00 3.237270123E+02
3.838990000E-03 3.271800000E+00 0.000000000E+00 3.229495258E+02
3.848210000E-03 3.268700000E+00 0.000000000E+00 3.221757648E+02
3.849360000E-03 3.268300000E+00 0.000000000E+00 3.220795145E+02
3.851380000E-03 3.267600000E+00 0.000000000E+00 3.219105879E+02
3.857430000E-03 3.265400000E+00 0.000000000E+00 3.214057028E+02
3.857660000E-03 3.265400000E+00 0.000000000E+00 3.213865400E+02
3.858560000E-03 3.265000000E+00 0.000000000E+00 3.213115774E+02
3.860230000E-03 3.264500000E+00 0.000000000E+00 3.211725726E+02
3.861700000E-03 3.263900000E+00 0.000000000E+00 3.210503146E+02
3.864270000E-03 3.263000000E+00 0.000000000E+00 3.208367945E+02
3.868120000E-03 3.261700000E+00 0.000000000E+00 3.205174607E+02
3.871980000E-03 3.260300000E+00 0.000000000E+00 3.201979349E+02
3.875260000E-03 3.259200000E+00 0.000000000E+00 3.199269210E+02
3.880180000E-03 3.257400000E+00 0.000000000E+00 3.195212593E+02
3.882640000E-03 3.256600000E+00 0.000000000E+00 3.193188140E+02
3.885100000E-03 3.255700000E+00 0.000000000E+00 3.191166251E+02
3.889710000E-03 3.254100000E+00 0.000000000E+00 3.187384149E+02
3.892020000E-03 3.253300000E+00 0.000000000E+00 3.185492366E+02
3.894320000E-03 3.252500000E+00 0.000000000E+00 3.183611003E+02
3.898930000E-03 3.250900000E+00 0.000000000E+00 3.179846778E+02
3.901240000E-03 3.250000000E+00 0.000000000E+00 3.177963929E+02
3.902390000E-03 3.249600000E+00 0.000000000E+00 3.177027411E+02
3.903550000E-03 3.249200000E+00 0.000000000E+00 3.176083309E+02
3.913060000E-03 3.245900000E+00 0.000000000E+00 3.168364400E+02
3.914170000E-03 3.245500000E+00 0.000000000E+00 3.167465900E+02
3.916130000E-03 3.244800000E+00 0.000000000E+00 3.165880602E+02
3.926600000E-03 3.241100000E+00 0.000000000E+00 3.157439006E+02
3.928910000E-03 3.240300000E+00 0.000000000E+00 3.155582592E+02
3.931210000E-03 3.239500000E+00 0.000000000E+00 3.153736381E+02
3.934310000E-03 3.238400000E+00 0.000000000E+00 3.151251427E+02
3.937400000E-03 3.237300000E+00 0.000000000E+00 3.148778382E+02
3.946750000E-03 3.234100000E+00 0.000000000E+00 3.141318807E+02
3.956090000E-03 3.230700000E+00 0.000000000E+00 3.133902414E+02
3.965440000E-03 3.227100000E+00 0.000000000E+00 3.126513073E+02
3.974790000E-03 3.223500000E+00 0.000000000E+00 3.119158496E+02
3.984130000E-03 3.220000000E+00 0.000000000E+00 3.111846250E+02
4.052080000E-03 3.192500000E+00 0.000000000E+00 3.059663185E+02
4.086060000E-03 3.177900000E+00 0.000000000E+00 3.034218783E+02
4.103040000E-03 3.170600000E+00 0.000000000E+00 3.021661987E+02
4.120030000E-03 3.163300000E+00 0.000000000E+00 3.009201389E+02
4.122070000E-03 3.162400000E+00 0.000000000E+00 3.007712145E+02
4.132220000E-03 3.158100000E+00 0.000000000E+00 3.000324281E+02
4.142360000E-03 3.153700000E+00 0.000000000E+00 2.992979847E+02
4.152510000E-03 3.149100000E+00 0.000000000E+00 2.985664092E+02
4.162650000E-03 3.144400000E+00 0.000000000E+00 2.978391169E+02
4.172800000E-03 3.139700000E+00 0.000000000E+00 2.971146472E+02
4.191020000E-03 3.131200000E+00 0.000000000E+00 2.958229739E+02
4.203240000E-03 3.125500000E+00 0.000000000E+00 2.949629334E+02
4.213380000E-03 3.120800000E+00 0.000000000E+00 2.942530700E+02
4.223530000E-03 3.116000000E+00 0.000000000E+00 2.935459201E+02
4.233680000E-03 3.111100000E+00 0.000000000E+00 2.928421610E+02
4.243820000E-03 3.106200000E+00 0.000000000E+00 2.921424566E+02
4.250430000E-03 3.103000000E+00 0.000000000E+00 2.916881351E+02
4.253730000E-03 3.101400000E+00 0.000000000E+00 2.914618464E+02
4.257030000E-03 3.099800000E+00 0.000000000E+00 2.912359086E+02
4.277980000E-03 3.089600000E+00 0.000000000E+00 2.898096765E+02
4.288460000E-03 3.084600000E+00 0.000000000E+00 2.891014490E+02
4.298940000E-03 3.079500000E+00 0.000000000E+00 2.883966745E+02
4.309420000E-03 3.074400000E+00 0.000000000E+00 2.876953279E+02
4.317200000E-03 3.070700000E+00 0.000000000E+00 2.871768739E+02
4.324990000E-03 3.066600000E+00 0.000000000E+00 2.866596223E+02
4.332920000E-03 3.062300000E+00 0.000000000E+00 2.861349852E+02
4.336890000E-03 3.060200000E+00 0.000000000E+00 2.858730565E+02
4.340850000E-03 3.058100000E+00 0.000000000E+00 2.856122649E+02
4.348710000E-03 3.053900000E+00 0.000000000E+00 2.850960400E+02
4.353950000E-03 3.051100000E+00 0.000000000E+00 2.847529255E+02
4.357880000E-03 3.049000000E+00 0.000000000E+00 2.844961311E+02
4.359850000E-03 3.047900000E+00 0.000000000E+00 2.843675815E+02
4.360830000E-03 3.047400000E+00 0.000000000E+00 2.843036761E+02
4.361320000E-03 3.047200000E+00 0.000000000E+00 2.842717342E+02
4.361810000E-03 3.046900000E+00 0.000000000E+00 2.842397995E+02
4.362140000E-03 3.046700000E+00 0.000000000E+00 2.842182965E+02
4.362770000E-03 3.046400000E+00 0.000000000E+00 2.841772544E+02
4.372290000E-03 3.041300000E+00 0.000000000E+00 2.835585014E+02
4.373600000E-03 3.040600000E+00 0.000000000E+00 2.834735687E+02
4.382770000E-03 3.035700000E+00 0.000000000E+00 2.828804614E+02
4.385450000E-03 3.034200000E+00 0.000000000E+00 2.827075899E+02
4.393500000E-03 3.029900000E+00 0.000000000E+00 2.821895983E+02
4.398490000E-03 3.027300000E+00 0.000000000E+00 2.818694597E+02
4.405990000E-03 3.023300000E+00 0.000000000E+00 2.813896536E+02
4.413480000E-03 3.019300000E+00 0.000000000E+00 2.809121147E+02
4.424680000E-03 3.013300000E+00 0.000000000E+00 2.802010541E+02
4.435160000E-03 3.007700000E+00 0.000000000E+00 2.795389569E+02
4.445640000E-03 3.002000000E+00 0.000000000E+00 2.788799813E+02
4.462250000E-03 2.992800000E+00 0.000000000E+00 2.778418959E+02
4.466590000E-03 2.990300000E+00 0.000000000E+00 2.775719285E+02
4.468640000E-03 2.989200000E+00 0.000000000E+00 2.774445916E+02
4.474010000E-03 2.986100000E+00 0.000000000E+00 2.771115845E+02
4.479370000E-03 2.982800000E+00 0.000000000E+00 2.767799936E+02
4.490110000E-03 2.976200000E+00 0.000000000E+00 2.761179570E+02
4.499500000E-03 2.970400000E+00 0.000000000E+00 2.755417269E+02
4.508900000E-03 2.964700000E+00 0.000000000E+00 2.749672869E+02
4.522310000E-03 2.956400000E+00 0.000000000E+00 2.741519268E+02
4.533050000E-03 2.949900000E+00 0.000000000E+00 2.735023880E+02
4.543780000E-03 2.943300000E+00 0.000000000E+00 2.728565203E+02
4.554520000E-03 2.936700000E+00 0.000000000E+00 2.722130982E+02
4.565250000E-03 2.930100000E+00 0.000000000E+00 2.715732983E+02
4.575990000E-03 2.923500000E+00 0.000000000E+00 2.709359068E+02
4.589560000E-03 2.915200000E+00 0.000000000E+00 2.701348277E+02
4.599740000E-03 2.909000000E+00 0.000000000E+00 2.695369738E+02
4.607380000E-03 2.904100000E+00 0.000000000E+00 2.690900251E+02
4.618830000E-03 2.896400000E+00 0.000000000E+00 2.684229556E+02
4.624560000E-03 2.892500000E+00 0.000000000E+00 2.680903697E+02
4.630280000E-03 2.888700000E+00 0.000000000E+00 2.677591852E+02
4.632330000E-03 2.887300000E+00 0.000000000E+00 2.676406905E+02
4.638030000E-03 2.883400000E+00 0.000000000E+00 2.673117681E+02
4.655130000E-03 2.871500000E+00 0.000000000E+00 2.663298340E+02
4.666540000E-03 2.863600000E+00 0.000000000E+00 2.656786398E+02
4.677940000E-03 2.855600000E+00 0.000000000E+00 2.650311889E+02
4.689340000E-03 2.847600000E+00 0.000000000E+00 2.643868860E+02
4.697370000E-03 2.842000000E+00 0.000000000E+00 2.639349253E+02
4.703390000E-03 2.837800000E+00 0.000000000E+00 2.635971076E+02
4.712420000E-03 2.831400000E+00 0.000000000E+00 2.630919994E+02
4.716940000E-03 2.828300000E+00 0.000000000E+00 2.628398920E+02
4.721850000E-03 2.824900000E+00 0.000000000E+00 2.625665788E+02
4.731580000E-03 2.817400000E+00 0.000000000E+00 2.620266380E+02
4.734950000E-03 2.814800000E+00 0.000000000E+00 2.618401461E+02
4.737800000E-03 2.812600000E+00 0.000000000E+00 2.616826375E+02
4.742070000E-03 2.809300000E+00 0.000000000E+00 2.614470052E+02
4.744210000E-03 2.807700000E+00 0.000000000E+00 2.613290727E+02
4.745280000E-03 2.806900000E+00 0.000000000E+00 2.612701463E+02
4.745820000E-03 2.806500000E+00 0.000000000E+00 2.612404179E+02
4.746710000E-03 2.805800000E+00 0.000000000E+00 2.611914358E+02
4.747400000E-03 2.805200000E+00 0.000000000E+00 2.611534735E+02
4.757750000E-03 2.797300000E+00 0.000000000E+00 2.605853607E+02
4.759180000E-03 2.796200000E+00 0.000000000E+00 2.605070621E+02
4.764170000E-03 2.792400000E+00 0.000000000E+00 2.602342066E+02
4.769150000E-03 2.788500000E+00 0.000000000E+00 2.599624671E+02
4.772400000E-03 2.786000000E+00 0.000000000E+00 2.597854329E+02
4.778080000E-03 2.781700000E+00 0.000000000E+00 2.594766099E+02
4.782350000E-03 2.778400000E+00 0.000000000E+00 2.592449319E+02
4.788740000E-03 2.773500000E+00 0.000000000E+00 2.588990006E+02
4.795130000E-03 2.768600000E+00 0.000000000E+00 2.585539912E+02
4.803360000E-03 2.762300000E+00 0.000000000E+00 2.581109890E+02
4.809080000E-03 2.757900000E+00 0.000000000E+00 2.578039875E+02
4.815210000E-03 2.753200000E+00 0.000000000E+00 2.574757903E+02
4.818740000E-03 2.750400000E+00 0.000000000E+00 2.572871747E+02
4.826560000E-03 2.743900000E+00 0.000000000E+00 2.568703176E+02
4.830540000E-03 2.740200000E+00 0.000000000E+00 2.566586758E+02
4.838320000E-03 2.733100000E+00 0.000000000E+00 2.562459697E+02
4.842340000E-03 2.729500000E+00 0.000000000E+00 2.560332401E+02
4.843820000E-03 2.728100000E+00 0.000000000E+00 2.559550107E+02
4.846400000E-03 2.725800000E+00 0.000000000E+00 2.558187521E+02
4.854150000E-03 2.718700000E+00 0.000000000E+00 2.554103190E+02
4.860640000E-03 2.712800000E+00 0.000000000E+00 2.550692913E+02
4.861410000E-03 2.712100000E+00 0.000000000E+00 2.550288908E+02
4.862910000E-03 2.710700000E+00 0.000000000E+00 2.549502253E+02
4.865720000E-03 2.708200000E+00 0.000000000E+00 2.548029891E+02
4.868170000E-03 2.705900000E+00 0.000000000E+00 2.546747546E+02
4.870320000E-03 2.704000000E+00 0.000000000E+00 2.545623286E+02
4.874090000E-03 2.700500000E+00 0.000000000E+00 2.543654303E+02
4.876910000E-03 2.698000000E+00 0.000000000E+00 2.542183473E+02
4.879030000E-03 2.696000000E+00 0.000000000E+00 2.541078862E+02
4.882200000E-03 2.693100000E+00 0.000000000E+00 2.539428946E+02
4.883790000E-03 2.691700000E+00 0.000000000E+00 2.538602192E+02
4.884580000E-03 2.691000000E+00 0.000000000E+00 2.538191615E+02
4.886690000E-03 2.689000000E+00 0.000000000E+00 2.537095662E+02
4.889000000E-03 2.686900000E+00 0.000000000E+00 2.535896911E+02
4.890730000E-03 2.685400000E+00 0.000000000E+00 2.534999888E+02
4.892940000E-03 2.683300000E+00 0.000000000E+00 2.533854901E+02
4.895170000E-03 2.681300000E+00 0.000000000E+00 2.532700601E+02
4.898830000E-03 2.678000000E+00 0.000000000E+00 2.530808377E+02
4.900280000E-03 2.676700000E+00 0.000000000E+00 2.530059507E+02
4.903240000E-03 2.674000000E+00 0.000000000E+00 2.528532154E+02
4.911130000E-03 2.666800000E+00 0.000000000E+00 2.524469929E+02
4.913770000E-03 2.664400000E+00 0.000000000E+00 2.523113617E+02
4.925800000E-03 2.653400000E+00 0.000000000E+00 2.516951561E+02
4.931820000E-03 2.647900000E+00 0.000000000E+00 2.513879258E+02
4.937840000E-03 2.642400000E+00 0.000000000E+00 2.510814445E+02
4.945310000E-03 2.635600000E+00 0.000000000E+00 2.507021804E+02
4.956520000E-03 2.625400000E+00 0.000000000E+00 2.501351755E+02
4.967720000E-03 2.615100000E+00 0.000000000E+00 2.495712319E+02
4.973940000E-03 2.609300000E+00 0.000000000E+00 2.492591386E+02
4.983980000E-03 2.599800000E+00 0.000000000E+00 2.487570175E+02
4.995780000E-03 2.588700000E+00 0.000000000E+00 2.481694550E+02
5.007580000E-03 2.576700000E+00 0.000000000E+00 2.475846617E+02
5.022090000E-03 2.560400000E+00 0.000000000E+00 2.468693313E+02
5.031190000E-03 2.550200000E+00 0.000000000E+00 2.464228145E+02
5.039410000E-03 2.540900000E+00 0.000000000E+00 2.460208636E+02
5.070230000E-03 2.506200000E+00 0.000000000E+00 2.445253963E+02
5.082260000E-03 2.492700000E+00 0.000000000E+00 2.439465907E+02
5.085110000E-03 2.489500000E+00 0.000000000E+00 2.438098684E+02
5.093960000E-03 2.479500000E+00 0.000000000E+00 2.433862849E+02
5.100230000E-03 2.472400000E+00 0.000000000E+00 2.430870765E+02
5.106500000E-03 2.465000000E+00 0.000000000E+00 2.427886028E+02
5.111360000E-03 2.459300000E+00 0.000000000E+00 2.425577537E+02
5.119030000E-03 2.450300000E+00 0.000000000E+00 2.421943220E+02
5.127110000E-03 2.440700000E+00 0.000000000E+00 2.418126391E+02
5.131960000E-03 2.435000000E+00 0.000000000E+00 2.415841121E+02
5.136910000E-03 2.429200000E+00 0.000000000E+00 2.413513182E+02
5.144110000E-03 2.419200000E+00 0.000000000E+00 2.410135087E+02
5.147250000E-03 2.414900000E+00 0.000000000E+00 2.408664821E+02
5.156650000E-03 2.401900000E+00 0.000000000E+00 2.404274093E+02
5.160220000E-03 2.396900000E+00 0.000000000E+00 2.402610741E+02
5.166480000E-03 2.388200000E+00 0.000000000E+00 2.399699602E+02
5.171170000E-03 2.381700000E+00 0.000000000E+00 2.397523191E+02
5.178200000E-03 2.372000000E+00 0.000000000E+00 2.394268279E+02
5.181720000E-03 2.367100000E+00 0.000000000E+00 2.392641825E+02
5.185240000E-03 2.362300000E+00 0.000000000E+00 2.391017581E+02
5.191500000E-03 2.353600000E+00 0.000000000E+00 2.388134451E+02
5.196190000E-03 2.347100000E+00 0.000000000E+00 2.385978958E+02
5.201260000E-03 2.340100000E+00 0.000000000E+00 2.383653192E+02
5.203340000E-03 2.337200000E+00 0.000000000E+00 2.382700342E+02
