# Data retrieved from https://www-nds.iaea.org/epdl97/za1to100.htm 03/01/2021
# Element, Tc  (Z = 43) 
# Atomic weight, g mol-1 = 99.0 
# Nominal density, g cm-3 =  1.15000E+1 
# Relativistic correction estimate f_rel(5CL)*,  e atom-1 =  0 
# Nuclear Thomson correction f_NT*, e atom-1 =  0 
#    E [keV]      f1 [e atom-1]      f2 [e atom-1]    Wavelength [nm] 
1.000000000E-03 4.234900000E+00 0.000000000E+00 1.239800000E+03
1.125000000E-03 4.227700000E+00 0.000000000E+00 1.102044444E+03
1.265630000E-03 4.219700000E+00 0.000000000E+00 9.795911917E+02
1.423830000E-03 4.210700000E+00 0.000000000E+00 8.707500193E+02
1.601810000E-03 4.200500000E+00 0.000000000E+00 7.739994132E+02
1.802030000E-03 4.189100000E+00 0.000000000E+00 6.880018646E+02
2.008690000E-03 4.176700000E+00 0.000000000E+00 6.172181870E+02
2.189510000E-03 4.154100000E+00 0.000000000E+00 5.662454156E+02
2.347730000E-03 4.134300000E+00 0.000000000E+00 5.280845753E+02
2.486170000E-03 4.117000000E+00 0.000000000E+00 4.986786905E+02
2.607310000E-03 4.101800000E+00 0.000000000E+00 4.755092413E+02
2.713300000E-03 4.088600000E+00 0.000000000E+00 4.569343604E+02
2.806050000E-03 4.077000000E+00 0.000000000E+00 4.418310436E+02
2.887200000E-03 4.066800000E+00 0.000000000E+00 4.294125797E+02
3.029210000E-03 4.049100000E+00 0.000000000E+00 4.092816279E+02
3.135730000E-03 4.035800000E+00 0.000000000E+00 3.953784286E+02
3.215610000E-03 4.025800000E+00 0.000000000E+00 3.855567062E+02
3.275520000E-03 4.018300000E+00 0.000000000E+00 3.785047870E+02
3.320460000E-03 4.012700000E+00 0.000000000E+00 3.733820013E+02
3.354160000E-03 4.008500000E+00 0.000000000E+00 3.696305483E+02
3.404710000E-03 4.002100000E+00 0.000000000E+00 3.641426142E+02
3.429990000E-03 3.999000000E+00 0.000000000E+00 3.614587798E+02
3.455260000E-03 3.995800000E+00 0.000000000E+00 3.588152556E+02
3.463770000E-03 3.994800000E+00 0.000000000E+00 3.579336965E+02
3.472270000E-03 3.993700000E+00 0.000000000E+00 3.570574869E+02
3.480780000E-03 3.992600000E+00 0.000000000E+00 3.561845334E+02
3.489280000E-03 3.991600000E+00 0.000000000E+00 3.553168562E+02
3.497790000E-03 3.990500000E+00 0.000000000E+00 3.544523828E+02
3.506290000E-03 3.989400000E+00 0.000000000E+00 3.535931141E+02
3.514800000E-03 3.988400000E+00 0.000000000E+00 3.527369978E+02
3.523300000E-03 3.987300000E+00 0.000000000E+00 3.518860160E+02
3.531810000E-03 3.986200000E+00 0.000000000E+00 3.510381363E+02
3.540310000E-03 3.985200000E+00 0.000000000E+00 3.501953219E+02
3.548810000E-03 3.984100000E+00 0.000000000E+00 3.493565449E+02
3.557320000E-03 3.983100000E+00 0.000000000E+00 3.485207966E+02
3.567920000E-03 3.981700000E+00 0.000000000E+00 3.474853696E+02
3.571450000E-03 3.981300000E+00 0.000000000E+00 3.471419171E+02
3.589030000E-03 3.979100000E+00 0.000000000E+00 3.454415260E+02
3.597830000E-03 3.978000000E+00 0.000000000E+00 3.445966041E+02
3.606620000E-03 3.976900000E+00 0.000000000E+00 3.437567584E+02
3.615410000E-03 3.975800000E+00 0.000000000E+00 3.429209965E+02
3.620380000E-03 3.975200000E+00 0.000000000E+00 3.424502400E+02
3.625360000E-03 3.974500000E+00 0.000000000E+00 3.419798310E+02
3.629170000E-03 3.974100000E+00 0.000000000E+00 3.416208114E+02
3.632990000E-03 3.973600000E+00 0.000000000E+00 3.412616055E+02
3.637380000E-03 3.973000000E+00 0.000000000E+00 3.408497325E+02
3.641780000E-03 3.972500000E+00 0.000000000E+00 3.404379177E+02
3.648370000E-03 3.971700000E+00 0.000000000E+00 3.398229894E+02
3.652770000E-03 3.971100000E+00 0.000000000E+00 3.394136505E+02
3.656060000E-03 3.970700000E+00 0.000000000E+00 3.391082203E+02
3.657710000E-03 3.970500000E+00 0.000000000E+00 3.389552480E+02
3.658540000E-03 3.970400000E+00 0.000000000E+00 3.388783504E+02
3.658950000E-03 3.970300000E+00 0.000000000E+00 3.388403777E+02
3.659630000E-03 3.970300000E+00 0.000000000E+00 3.387774174E+02
3.660170000E-03 3.970200000E+00 0.000000000E+00 3.387274362E+02
3.668150000E-03 3.969200000E+00 0.000000000E+00 3.379905402E+02
3.670350000E-03 3.968900000E+00 0.000000000E+00 3.377879494E+02
3.676940000E-03 3.968100000E+00 0.000000000E+00 3.371825485E+02
3.681340000E-03 3.967500000E+00 0.000000000E+00 3.367795422E+02
3.685730000E-03 3.967000000E+00 0.000000000E+00 3.363784108E+02
3.690130000E-03 3.966400000E+00 0.000000000E+00 3.359773233E+02
3.694520000E-03 3.965900000E+00 0.000000000E+00 3.355780995E+02
3.698920000E-03 3.965300000E+00 0.000000000E+00 3.351789171E+02
3.703310000E-03 3.964800000E+00 0.000000000E+00 3.347815873E+02
3.712100000E-03 3.963700000E+00 0.000000000E+00 3.339888473E+02
3.720890000E-03 3.962600000E+00 0.000000000E+00 3.331998527E+02
3.729690000E-03 3.961500000E+00 0.000000000E+00 3.324136859E+02
3.742870000E-03 3.959900000E+00 0.000000000E+00 3.312431370E+02
3.747270000E-03 3.959300000E+00 0.000000000E+00 3.308541952E+02
3.751190000E-03 3.958800000E+00 0.000000000E+00 3.305084520E+02
3.759020000E-03 3.957800000E+00 0.000000000E+00 3.298200063E+02
3.766780000E-03 3.956900000E+00 0.000000000E+00 3.291405391E+02
3.782190000E-03 3.954900000E+00 0.000000000E+00 3.277995024E+02
3.797360000E-03 3.953000000E+00 0.000000000E+00 3.264899825E+02
3.812290000E-03 3.951200000E+00 0.000000000E+00 3.252113559E+02
3.826980000E-03 3.949300000E+00 0.000000000E+00 3.239630204E+02
3.841450000E-03 3.947500000E+00 0.000000000E+00 3.227427143E+02
3.869930000E-03 3.944000000E+00 0.000000000E+00 3.203675519E+02
3.897520000E-03 3.940500000E+00 0.000000000E+00 3.180997147E+02
3.924250000E-03 3.937200000E+00 0.000000000E+00 3.159329808E+02
3.950140000E-03 3.933900000E+00 0.000000000E+00 3.138622935E+02
3.975230000E-03 3.930800000E+00 0.000000000E+00 3.118813251E+02
4.364040000E-03 3.849100000E+00 0.000000000E+00 2.840945546E+02
4.412640000E-03 3.838700000E+00 0.000000000E+00 2.809655898E+02
4.455160000E-03 3.829500000E+00 0.000000000E+00 2.782840571E+02
4.492370000E-03 3.821500000E+00 0.000000000E+00 2.759790489E+02
4.524930000E-03 3.814400000E+00 0.000000000E+00 2.739931888E+02
4.553420000E-03 3.808300000E+00 0.000000000E+00 2.722788585E+02
4.578350000E-03 3.802900000E+00 0.000000000E+00 2.707962476E+02
4.621970000E-03 3.793500000E+00 0.000000000E+00 2.682405987E+02
4.654690000E-03 3.786400000E+00 0.000000000E+00 2.663550097E+02
4.679230000E-03 3.781100000E+00 0.000000000E+00 2.649581235E+02
4.697630000E-03 3.777200000E+00 0.000000000E+00 2.639203173E+02
4.711440000E-03 3.774200000E+00 0.000000000E+00 2.631467237E+02
4.732140000E-03 3.769700000E+00 0.000000000E+00 2.619956299E+02
4.742490000E-03 3.767500000E+00 0.000000000E+00 2.614238512E+02
4.747670000E-03 3.766400000E+00 0.000000000E+00 2.611386217E+02
4.752840000E-03 3.765200000E+00 0.000000000E+00 2.608545627E+02
4.764540000E-03 3.762700000E+00 0.000000000E+00 2.602139976E+02
4.776240000E-03 3.760200000E+00 0.000000000E+00 2.595765707E+02
4.787940000E-03 3.757700000E+00 0.000000000E+00 2.589422591E+02
4.799640000E-03 3.755100000E+00 0.000000000E+00 2.583110400E+02
4.811340000E-03 3.752600000E+00 0.000000000E+00 2.576828908E+02
4.817190000E-03 3.751400000E+00 0.000000000E+00 2.573699605E+02
4.823040000E-03 3.750100000E+00 0.000000000E+00 2.570577893E+02
4.828890000E-03 3.748800000E+00 0.000000000E+00 2.567463744E+02
4.834730000E-03 3.747600000E+00 0.000000000E+00 2.564362436E+02
4.840580000E-03 3.746300000E+00 0.000000000E+00 2.561263320E+02
4.846430000E-03 3.745100000E+00 0.000000000E+00 2.558171685E+02
4.855210000E-03 3.743200000E+00 0.000000000E+00 2.553545573E+02
4.861060000E-03 3.741900000E+00 0.000000000E+00 2.550472531E+02
4.865440000E-03 3.740900000E+00 0.000000000E+00 2.548176527E+02
4.867640000E-03 3.740400000E+00 0.000000000E+00 2.547024842E+02
4.868730000E-03 3.740100000E+00 0.000000000E+00 2.546454620E+02
4.869010000E-03 3.740100000E+00 0.000000000E+00 2.546308182E+02
4.869210000E-03 3.740000000E+00 0.000000000E+00 2.546203594E+02
4.869290000E-03 3.740000000E+00 0.000000000E+00 2.546161761E+02
4.869450000E-03 3.739900000E+00 0.000000000E+00 2.546078099E+02
4.869640000E-03 3.739900000E+00 0.000000000E+00 2.545978758E+02
4.869740000E-03 3.739900000E+00 0.000000000E+00 2.545926477E+02
4.869830000E-03 3.739800000E+00 0.000000000E+00 2.545879425E+02
4.870010000E-03 3.739800000E+00 0.000000000E+00 2.545785327E+02
4.870370000E-03 3.739700000E+00 0.000000000E+00 2.545597152E+02
4.881530000E-03 3.736500000E+00 0.000000000E+00 2.539777488E+02
4.884450000E-03 3.735700000E+00 0.000000000E+00 2.538259169E+02
4.893230000E-03 3.733200000E+00 0.000000000E+00 2.533704731E+02
4.899080000E-03 3.731600000E+00 0.000000000E+00 2.530679230E+02
4.904930000E-03 3.729900000E+00 0.000000000E+00 2.527660945E+02
4.910770000E-03 3.728300000E+00 0.000000000E+00 2.524654993E+02
4.916620000E-03 3.726600000E+00 0.000000000E+00 2.521651053E+02
4.922470000E-03 3.725000000E+00 0.000000000E+00 2.518654253E+02
4.928320000E-03 3.723300000E+00 0.000000000E+00 2.515664567E+02
4.940020000E-03 3.719900000E+00 0.000000000E+00 2.509706438E+02
4.951720000E-03 3.716100000E+00 0.000000000E+00 2.503776466E+02
4.963420000E-03 3.712300000E+00 0.000000000E+00 2.497874449E+02
4.975120000E-03 3.708300000E+00 0.000000000E+00 2.492000193E+02
4.986820000E-03 3.704200000E+00 0.000000000E+00 2.486153501E+02
4.993770000E-03 3.701700000E+00 0.000000000E+00 2.482693436E+02
5.007470000E-03 3.696900000E+00 0.000000000E+00 2.475901004E+02
5.020740000E-03 3.692200000E+00 0.000000000E+00 2.469357107E+02
5.046450000E-03 3.683100000E+00 0.000000000E+00 2.456776546E+02
5.070560000E-03 3.674500000E+00 0.000000000E+00 2.445094822E+02
5.093160000E-03 3.666500000E+00 0.000000000E+00 2.434245144E+02
5.135530000E-03 3.651500000E+00 0.000000000E+00 2.414161732E+02
5.172600000E-03 3.638400000E+00 0.000000000E+00 2.396860380E+02
5.237480000E-03 3.615400000E+00 0.000000000E+00 2.367168944E+02
5.286140000E-03 3.598100000E+00 0.000000000E+00 2.345378670E+02
5.432130000E-03 3.546400000E+00 0.000000000E+00 2.282345967E+02
5.445500000E-03 3.541700000E+00 0.000000000E+00 2.276742264E+02
5.458870000E-03 3.537000000E+00 0.000000000E+00 2.271166011E+02
5.461200000E-03 3.536100000E+00 0.000000000E+00 2.270197026E+02
5.478900000E-03 3.529900000E+00 0.000000000E+00 2.262862983E+02
5.488080000E-03 3.526600000E+00 0.000000000E+00 2.259077856E+02
5.501530000E-03 3.521800000E+00 0.000000000E+00 2.253554920E+02
5.505870000E-03 3.520300000E+00 0.000000000E+00 2.251778556E+02
5.514970000E-03 3.517100000E+00 0.000000000E+00 2.248062999E+02
5.519360000E-03 3.515500000E+00 0.000000000E+00 2.246274930E+02
5.532850000E-03 3.510700000E+00 0.000000000E+00 2.240798142E+02
5.540620000E-03 3.508000000E+00 0.000000000E+00 2.237655714E+02
5.548400000E-03 3.505200000E+00 0.000000000E+00 2.234518059E+02
5.555140000E-03 3.502800000E+00 0.000000000E+00 2.231806939E+02
5.565260000E-03 3.499300000E+00 0.000000000E+00 2.227748569E+02
5.575380000E-03 3.495700000E+00 0.000000000E+00 2.223704931E+02
5.582120000E-03 3.493300000E+00 0.000000000E+00 2.221019971E+02
5.588870000E-03 3.490900000E+00 0.000000000E+00 2.218337517E+02
5.602360000E-03 3.486100000E+00 0.000000000E+00 2.212995952E+02
5.615850000E-03 3.481300000E+00 0.000000000E+00 2.207680048E+02
5.629340000E-03 3.476600000E+00 0.000000000E+00 2.202389623E+02
5.642830000E-03 3.471800000E+00 0.000000000E+00 2.197124492E+02
5.659550000E-03 3.465900000E+00 0.000000000E+00 2.190633531E+02
5.676270000E-03 3.459900000E+00 0.000000000E+00 2.184180809E+02
5.683300000E-03 3.457400000E+00 0.000000000E+00 2.181479070E+02
5.694670000E-03 3.453400000E+00 0.000000000E+00 2.177123521E+02
5.703160000E-03 3.450400000E+00 0.000000000E+00 2.173882549E+02
5.708160000E-03 3.448600000E+00 0.000000000E+00 2.171978361E+02
5.721650000E-03 3.443900000E+00 0.000000000E+00 2.166857462E+02
5.730040000E-03 3.440900000E+00 0.000000000E+00 2.163684721E+02
5.748620000E-03 3.434300000E+00 0.000000000E+00 2.156691519E+02
5.750760000E-03 3.433500000E+00 0.000000000E+00 2.155888961E+02
5.771840000E-03 3.426100000E+00 0.000000000E+00 2.148015191E+02
5.811370000E-03 3.412100000E+00 0.000000000E+00 2.133403999E+02
5.880540000E-03 3.387600000E+00 0.000000000E+00 2.108309781E+02
5.942400000E-03 3.365700000E+00 0.000000000E+00 2.086362412E+02
5.942640000E-03 3.365500000E+00 5.416770000E-08 2.086278152E+02
5.944810000E-03 3.364600000E+00 6.817090000E-08 2.085516610E+02
5.946950000E-03 3.363700000E+00 8.538700000E-08 2.084766141E+02
5.949080000E-03 3.362700000E+00 1.064690000E-07 2.084019714E+02
5.951890000E-03 3.361500000E+00 1.419370000E-07 2.083035809E+02
5.954670000E-03 3.360200000E+00 1.878460000E-07 2.082063322E+02
5.957180000E-03 3.359100000E+00 2.414090000E-07 2.081186065E+02
5.959900000E-03 3.357900000E+00 3.153690000E-07 2.080236246E+02
5.962580000E-03 3.356700000E+00 4.093260000E-07 2.079301242E+02
5.965230000E-03 3.355500000E+00 5.279530000E-07 2.078377531E+02
5.967850000E-03 3.354300000E+00 6.768320000E-07 2.077465084E+02
5.970440000E-03 3.353100000E+00 8.625890000E-07 2.076563871E+02
5.973000000E-03 3.352000000E+00 1.093040000E-06 2.075673866E+02
5.975540000E-03 3.350800000E+00 1.377350000E-06 2.074791567E+02
5.978040000E-03 3.349600000E+00 1.726220000E-06 2.073923895E+02
5.980510000E-03 3.348500000E+00 2.152050000E-06 2.073067347E+02
5.983760000E-03 3.346900000E+00 2.864550000E-06 2.071941388E+02
5.986960000E-03 3.345400000E+00 3.779370000E-06 2.070833946E+02
5.990110000E-03 3.343900000E+00 4.943890000E-06 2.069744963E+02
5.992830000E-03 3.342600000E+00 6.211400000E-06 2.068805556E+02
5.996270000E-03 3.341000000E+00 8.255080000E-06 2.067618703E+02
5.999650000E-03 3.339300000E+00 1.086440000E-05 2.066453876E+02
6.002970000E-03 3.337700000E+00 1.416450000E-05 2.065311004E+02
6.006230000E-03 3.336100000E+00 1.830010000E-05 2.064190016E+02
6.009430000E-03 3.334500000E+00 2.343750000E-05 2.063090842E+02
6.012580000E-03 3.332900000E+00 2.976550000E-05 2.062009986E+02
6.015680000E-03 3.331300000E+00 3.749640000E-05 2.060947391E+02
6.018720000E-03 3.329700000E+00 4.686750000E-05 2.059906425E+02
6.022690000E-03 3.327600000E+00 6.237300000E-05 2.058548589E+02
6.026570000E-03 3.325600000E+00 8.197400000E-05 2.057223263E+02
6.030370000E-03 3.323500000E+00 1.064320000E-04 2.055926917E+02
6.034070000E-03 3.321500000E+00 1.365950000E-04 2.054666253E+02
6.037690000E-03 3.319500000E+00 1.733840000E-04 2.053434343E+02
6.041230000E-03 3.317500000E+00 2.177810000E-04 2.052231085E+02
6.045810000E-03 3.314800000E+00 2.906090000E-04 2.050676419E+02
6.049160000E-03 3.312800000E+00 3.568590000E-04 2.049540763E+02
6.054030000E-03 3.309900000E+00 4.775920000E-04 2.047892065E+02
6.058740000E-03 3.307000000E+00 6.273230000E-04 2.046300056E+02
6.063280000E-03 3.304100000E+00 8.097730000E-04 2.044767848E+02
6.067670000E-03 3.301300000E+00 1.028480000E-03 2.043288445E+02
6.073280000E-03 3.297600000E+00 1.382320000E-03 2.041401022E+02
6.078650000E-03 3.293900000E+00 1.813670000E-03 2.039597608E+02
6.083770000E-03 3.290200000E+00 2.327180000E-03 2.037881116E+02
6.088330000E-03 3.286900000E+00 2.884560000E-03 2.036354797E+02
6.096300000E-03 3.281000000E+00 4.116990000E-03 2.033692568E+02
6.107560000E-03 3.272200000E+00 6.562890000E-03 2.029943218E+02
6.118300000E-03 3.263600000E+00 9.823600000E-03 2.026379877E+02
6.133290000E-03 3.251600000E+00 1.620180000E-02 2.021427325E+02
6.137630000E-03 3.248200000E+00 1.847340000E-02 2.019997947E+02
6.148280000E-03 3.240300000E+00 2.487250000E-02 2.016498923E+02
6.155450000E-03 3.235400000E+00 2.979250000E-02 2.014150062E+02
6.168000000E-03 3.228100000E+00 3.949430000E-02 2.010051881E+02
6.183770000E-03 3.220300000E+00 5.293040000E-02 2.004925798E+02
6.198810000E-03 3.214700000E+00 6.602700000E-02 2.000061302E+02
6.213840000E-03 3.212800000E+00 7.834570000E-02 1.995223565E+02
6.229980000E-03 3.213300000E+00 8.964830000E-02 1.990054543E+02
6.245230000E-03 3.215500000E+00 9.792250000E-02 1.985195101E+02
6.258950000E-03 3.218000000E+00 1.032330000E-01 1.980843432E+02
6.275140000E-03 3.220900000E+00 1.072380000E-01 1.975732812E+02
6.289020000E-03 3.222700000E+00 1.089820000E-01 1.971372328E+02
6.308560000E-03 3.224100000E+00 1.098040000E-01 1.965266241E+02
6.328100000E-03 3.223800000E+00 1.092820000E-01 1.959197863E+02
6.334130000E-03 3.223400000E+00 1.089870000E-01 1.957332736E+02
6.348090000E-03 3.222000000E+00 1.083000000E-01 1.953028391E+02
6.363120000E-03 3.217900000E+00 1.072580000E-01 1.948415243E+02
6.378150000E-03 3.213800000E+00 1.062160000E-01 1.943823836E+02
6.388050000E-03 3.211100000E+00 1.055300000E-01 1.940811359E+02
6.408220000E-03 3.205700000E+00 1.041320000E-01 1.934702616E+02
6.425500000E-03 3.201000000E+00 1.029340000E-01 1.929499650E+02
6.449850000E-03 3.194400000E+00 1.012460000E-01 1.922215245E+02
6.472710000E-03 3.186300000E+00 9.973220000E-02 1.915426460E+02
6.519920000E-03 3.169500000E+00 9.660520000E-02 1.901557074E+02
6.535660000E-03 3.163600000E+00 9.559620000E-02 1.896977505E+02
6.550370000E-03 3.157700000E+00 9.468530000E-02 1.892717511E+02
6.567140000E-03 3.151000000E+00 9.364690000E-02 1.887884224E+02
6.586070000E-03 3.143500000E+00 9.247450000E-02 1.882457976E+02
6.598740000E-03 3.138500000E+00 9.168980000E-02 1.878843537E+02
6.614860000E-03 3.132100000E+00 9.069130000E-02 1.874264913E+02
6.630990000E-03 3.125700000E+00 8.969280000E-02 1.869705730E+02
6.650250000E-03 3.117800000E+00 8.852830000E-02 1.864290816E+02
6.682990000E-03 3.103900000E+00 8.662810000E-02 1.855157647E+02
6.697190000E-03 3.097800000E+00 8.580420000E-02 1.851224170E+02
6.715730000E-03 3.089900000E+00 8.472800000E-02 1.846113527E+02
6.733590000E-03 3.082300000E+00 8.369140000E-02 1.841216944E+02
6.743600000E-03 3.077900000E+00 8.314850000E-02 1.838483896E+02
6.755950000E-03 3.072400000E+00 8.247900000E-02 1.835123114E+02
6.776730000E-03 3.063200000E+00 8.135220000E-02 1.829495937E+02
6.796780000E-03 3.054300000E+00 8.026570000E-02 1.824099059E+02
6.816290000E-03 3.045700000E+00 7.920810000E-02 1.818878011E+02
6.821610000E-03 3.042800000E+00 7.893860000E-02 1.817459515E+02
6.835850000E-03 3.034400000E+00 7.821800000E-02 1.813673501E+02
6.842650000E-03 3.030300000E+00 7.787410000E-02 1.811871132E+02
6.852850000E-03 3.024300000E+00 7.735820000E-02 1.809174285E+02
6.857950000E-03 3.021300000E+00 7.710020000E-02 1.807828870E+02
6.863050000E-03 3.018300000E+00 7.684230000E-02 1.806485455E+02
6.866760000E-03 3.016100000E+00 7.665420000E-02 1.805509440E+02
6.900750000E-03 2.995900000E+00 7.493460000E-02 1.796616310E+02
6.918360000E-03 2.985500000E+00 7.404360000E-02 1.792043201E+02
6.935610000E-03 2.975200000E+00 7.318180000E-02 1.787586096E+02
6.944710000E-03 2.969800000E+00 7.274990000E-02 1.785243732E+02
6.953800000E-03 2.964300000E+00 7.231800000E-02 1.782910064E+02
6.959820000E-03 2.960600000E+00 7.203200000E-02 1.781367909E+02
6.970360000E-03 2.954300000E+00 7.153150000E-02 1.778674272E+02
6.978260000E-03 2.949500000E+00 7.115610000E-02 1.776660658E+02
6.984190000E-03 2.945900000E+00 7.087460000E-02 1.775152165E+02
6.993080000E-03 2.940600000E+00 7.045230000E-02 1.772895491E+02
6.997530000E-03 2.937900000E+00 7.024120000E-02 1.771768038E+02
7.001980000E-03 2.935200000E+00 7.003000000E-02 1.770642018E+02
7.011470000E-03 2.929500000E+00 6.957930000E-02 1.768245461E+02
7.016210000E-03 2.926600000E+00 6.936320000E-02 1.767050872E+02
7.019770000E-03 2.924400000E+00 6.920500000E-02 1.766154732E+02
7.020660000E-03 2.923900000E+00 6.916550000E-02 1.765930838E+02
7.022070000E-03 2.923000000E+00 6.910300000E-02 1.765576247E+02
7.030310000E-03 2.918000000E+00 6.873660000E-02 1.763506872E+02
7.033950000E-03 2.915800000E+00 6.857500000E-02 1.762594275E+02
7.035770000E-03 2.914700000E+00 6.849420000E-02 1.762138330E+02
7.037580000E-03 2.913500000E+00 6.841340000E-02 1.761685125E+02
7.042010000E-03 2.910900000E+00 6.821690000E-02 1.760576881E+02
7.055270000E-03 2.901800000E+00 6.762730000E-02 1.757267971E+02
