# Data retrieved from https://www-nds.iaea.org/epdl97/za1to100.htm 03/01/2021
# Element, Tl  (Z = 81) 
# Atomic weight, g mol-1 = 204.37 
# Nominal density, g cm-3 =  1.17200E+1 
# Relativistic correction estimate f_rel(5CL)*,  e atom-1 =  0 
# Nuclear Thomson correction f_NT*, e atom-1 =  0 
#    E [keV]      f1 [e atom-1]      f2 [e atom-1]    Wavelength [nm] 
1.000000000E-03 3.888300000E+00 0.000000000E+00 1.239800000E+03
1.070040000E-03 3.884000000E+00 0.000000000E+00 1.158648275E+03
1.140090000E-03 3.879700000E+00 0.000000000E+00 1.087458008E+03
1.142890000E-03 3.879500000E+00 0.000000000E+00 1.084793812E+03
1.145700000E-03 3.879300000E+00 0.000000000E+00 1.082133194E+03
1.148510000E-03 3.879200000E+00 0.000000000E+00 1.079485594E+03
1.151310000E-03 3.879000000E+00 0.000000000E+00 1.076860272E+03
1.154120000E-03 3.878800000E+00 0.000000000E+00 1.074238381E+03
1.156930000E-03 3.878600000E+00 0.000000000E+00 1.071629226E+03
1.159730000E-03 3.878500000E+00 0.000000000E+00 1.069041932E+03
1.162540000E-03 3.878300000E+00 0.000000000E+00 1.066457928E+03
1.165340000E-03 3.878100000E+00 0.000000000E+00 1.063895515E+03
1.168150000E-03 3.877900000E+00 0.000000000E+00 1.061336301E+03
1.170960000E-03 3.877800000E+00 0.000000000E+00 1.058789369E+03
1.173760000E-03 3.877600000E+00 0.000000000E+00 1.056263631E+03
1.176570000E-03 3.877400000E+00 0.000000000E+00 1.053740959E+03
1.182180000E-03 3.877100000E+00 0.000000000E+00 1.048740463E+03
1.184990000E-03 3.876900000E+00 0.000000000E+00 1.046253555E+03
1.187790000E-03 3.876700000E+00 0.000000000E+00 1.043787201E+03
1.190600000E-03 3.876600000E+00 0.000000000E+00 1.041323702E+03
1.193410000E-03 3.876400000E+00 0.000000000E+00 1.038871804E+03
1.196210000E-03 3.876200000E+00 0.000000000E+00 1.036440090E+03
1.242330000E-03 3.873400000E+00 0.000000000E+00 9.979635041E+02
1.282680000E-03 3.870800000E+00 0.000000000E+00 9.665699941E+02
1.317980000E-03 3.868600000E+00 0.000000000E+00 9.406819527E+02
1.348880000E-03 3.866600000E+00 0.000000000E+00 9.191329103E+02
1.375910000E-03 3.864900000E+00 0.000000000E+00 9.010763785E+02
1.399560000E-03 3.863400000E+00 0.000000000E+00 8.858498385E+02
1.440950000E-03 3.860700000E+00 0.000000000E+00 8.604045942E+02
1.471990000E-03 3.858700000E+00 0.000000000E+00 8.422611567E+02
1.495280000E-03 3.857200000E+00 0.000000000E+00 8.291423680E+02
1.512740000E-03 3.856000000E+00 0.000000000E+00 8.195724315E+02
1.525840000E-03 3.855000000E+00 0.000000000E+00 8.125360457E+02
1.535660000E-03 3.854200000E+00 0.000000000E+00 8.073401664E+02
1.543030000E-03 3.853700000E+00 0.000000000E+00 8.034840541E+02
1.548550000E-03 3.853200000E+00 0.000000000E+00 8.006199348E+02
1.556840000E-03 3.852600000E+00 0.000000000E+00 7.963567226E+02
1.560980000E-03 3.852300000E+00 0.000000000E+00 7.942446412E+02
1.563050000E-03 3.852100000E+00 0.000000000E+00 7.931927961E+02
1.565130000E-03 3.852000000E+00 0.000000000E+00 7.921386722E+02
1.568980000E-03 3.851700000E+00 0.000000000E+00 7.901949037E+02
1.572830000E-03 3.851400000E+00 0.000000000E+00 7.882606512E+02
1.576680000E-03 3.851100000E+00 0.000000000E+00 7.863358449E+02
1.580540000E-03 3.850800000E+00 0.000000000E+00 7.844154529E+02
1.584390000E-03 3.850500000E+00 0.000000000E+00 7.825093569E+02
1.586310000E-03 3.850300000E+00 0.000000000E+00 7.815622419E+02
1.588240000E-03 3.850200000E+00 0.000000000E+00 7.806125019E+02
1.590170000E-03 3.850000000E+00 0.000000000E+00 7.796650673E+02
1.592090000E-03 3.849800000E+00 0.000000000E+00 7.787248208E+02
1.594020000E-03 3.849700000E+00 0.000000000E+00 7.777819601E+02
1.595950000E-03 3.849500000E+00 0.000000000E+00 7.768413797E+02
1.598830000E-03 3.849300000E+00 0.000000000E+00 7.754420420E+02
1.600760000E-03 3.849200000E+00 0.000000000E+00 7.745071091E+02
1.602210000E-03 3.849100000E+00 0.000000000E+00 7.738061802E+02
1.602930000E-03 3.849000000E+00 0.000000000E+00 7.734586039E+02
1.603290000E-03 3.849000000E+00 0.000000000E+00 7.732849329E+02
1.603470000E-03 3.849000000E+00 0.000000000E+00 7.731981266E+02
1.603650000E-03 3.848900000E+00 0.000000000E+00 7.731113398E+02
1.603770000E-03 3.848900000E+00 0.000000000E+00 7.730534927E+02
1.604000000E-03 3.848900000E+00 0.000000000E+00 7.729426434E+02
1.607500000E-03 3.848600000E+00 0.000000000E+00 7.712597201E+02
1.607980000E-03 3.848600000E+00 0.000000000E+00 7.710294904E+02
1.611350000E-03 3.848300000E+00 0.000000000E+00 7.694169485E+02
1.613280000E-03 3.848200000E+00 0.000000000E+00 7.684964792E+02
1.615210000E-03 3.848000000E+00 0.000000000E+00 7.675782096E+02
1.617130000E-03 3.847900000E+00 0.000000000E+00 7.666668728E+02
1.619060000E-03 3.847700000E+00 0.000000000E+00 7.657529678E+02
1.620990000E-03 3.847600000E+00 0.000000000E+00 7.648412390E+02
1.622910000E-03 3.847400000E+00 0.000000000E+00 7.639363859E+02
1.626760000E-03 3.847100000E+00 0.000000000E+00 7.621284025E+02
1.630620000E-03 3.846800000E+00 0.000000000E+00 7.603242938E+02
1.634470000E-03 3.846500000E+00 0.000000000E+00 7.585333472E+02
1.640250000E-03 3.846100000E+00 0.000000000E+00 7.558603871E+02
1.642170000E-03 3.845900000E+00 0.000000000E+00 7.549766468E+02
1.643630000E-03 3.845800000E+00 0.000000000E+00 7.543060178E+02
1.646550000E-03 3.845600000E+00 0.000000000E+00 7.529683277E+02
1.649450000E-03 3.845300000E+00 0.000000000E+00 7.516444876E+02
1.655230000E-03 3.844900000E+00 0.000000000E+00 7.490197737E+02
1.660960000E-03 3.844400000E+00 0.000000000E+00 7.464357962E+02
1.666650000E-03 3.844000000E+00 0.000000000E+00 7.438874389E+02
1.672300000E-03 3.843500000E+00 0.000000000E+00 7.413741554E+02
1.683500000E-03 3.842700000E+00 0.000000000E+00 7.364419364E+02
1.694530000E-03 3.841800000E+00 0.000000000E+00 7.316483037E+02
1.705380000E-03 3.840900000E+00 0.000000000E+00 7.269933974E+02
1.716070000E-03 3.840100000E+00 0.000000000E+00 7.224647013E+02
1.726590000E-03 3.839300000E+00 0.000000000E+00 7.180627711E+02
1.736940000E-03 3.838400000E+00 0.000000000E+00 7.137840110E+02
1.747130000E-03 3.837600000E+00 0.000000000E+00 7.096209212E+02
1.757810000E-03 3.836800000E+00 0.000000000E+00 7.053094476E+02
1.767040000E-03 3.836000000E+00 0.000000000E+00 7.016253169E+02
1.776760000E-03 3.835200000E+00 0.000000000E+00 6.977869830E+02
1.786330000E-03 3.834400000E+00 0.000000000E+00 6.940486920E+02
1.795760000E-03 3.833600000E+00 0.000000000E+00 6.904040629E+02
1.805030000E-03 3.832800000E+00 0.000000000E+00 6.868583902E+02
1.814160000E-03 3.832000000E+00 0.000000000E+00 6.834016845E+02
1.827570000E-03 3.830800000E+00 0.000000000E+00 6.783871480E+02
1.853620000E-03 3.828600000E+00 0.000000000E+00 6.688533788E+02
1.887100000E-03 3.825500000E+00 0.000000000E+00 6.569869111E+02
2.000000000E-03 3.814100000E+00 0.000000000E+00 6.199000000E+02
2.138180000E-03 3.796200000E+00 0.000000000E+00 5.798389284E+02
2.200950000E-03 3.788000000E+00 0.000000000E+00 5.633022104E+02
2.295110000E-03 3.775800000E+00 0.000000000E+00 5.401919734E+02
2.343750000E-03 3.769500000E+00 0.000000000E+00 5.289813333E+02
2.389260000E-03 3.762400000E+00 0.000000000E+00 5.189054352E+02
2.395140000E-03 3.761500000E+00 0.000000000E+00 5.176315372E+02
2.401020000E-03 3.760600000E+00 0.000000000E+00 5.163638787E+02
2.406900000E-03 3.759700000E+00 0.000000000E+00 5.151024139E+02
2.412780000E-03 3.758800000E+00 0.000000000E+00 5.138470975E+02
2.418670000E-03 3.757800000E+00 0.000000000E+00 5.125957654E+02
2.424550000E-03 3.756900000E+00 0.000000000E+00 5.113526221E+02
2.430430000E-03 3.756000000E+00 0.000000000E+00 5.101154940E+02
2.436310000E-03 3.755100000E+00 0.000000000E+00 5.088843374E+02
2.442190000E-03 3.754200000E+00 0.000000000E+00 5.076591092E+02
2.448070000E-03 3.753300000E+00 0.000000000E+00 5.064397668E+02
2.453950000E-03 3.752300000E+00 0.000000000E+00 5.052262679E+02
2.459830000E-03 3.751400000E+00 0.000000000E+00 5.040185704E+02
2.465710000E-03 3.750500000E+00 0.000000000E+00 5.028166329E+02
2.477470000E-03 3.748700000E+00 0.000000000E+00 5.004298740E+02
2.483360000E-03 3.747800000E+00 0.000000000E+00 4.992429611E+02
2.489240000E-03 3.746900000E+00 0.000000000E+00 4.980636660E+02
2.495120000E-03 3.745900000E+00 0.000000000E+00 4.968899291E+02
2.501000000E-03 3.745000000E+00 0.000000000E+00 4.957217113E+02
2.506880000E-03 3.744100000E+00 0.000000000E+00 4.945589737E+02
2.551370000E-03 3.737200000E+00 0.000000000E+00 4.859350075E+02
2.557650000E-03 3.736200000E+00 0.000000000E+00 4.847418529E+02
2.563930000E-03 3.735200000E+00 0.000000000E+00 4.835545432E+02
2.570210000E-03 3.734200000E+00 0.000000000E+00 4.823730357E+02
2.576490000E-03 3.733300000E+00 0.000000000E+00 4.811972878E+02
2.582770000E-03 3.732300000E+00 0.000000000E+00 4.800272576E+02
2.589050000E-03 3.731300000E+00 0.000000000E+00 4.788629034E+02
2.595330000E-03 3.730300000E+00 0.000000000E+00 4.777041841E+02
2.601610000E-03 3.729400000E+00 0.000000000E+00 4.765510588E+02
2.607890000E-03 3.728400000E+00 0.000000000E+00 4.754034871E+02
2.614170000E-03 3.727400000E+00 0.000000000E+00 4.742614291E+02
2.620450000E-03 3.726400000E+00 0.000000000E+00 4.731248450E+02
2.626730000E-03 3.725400000E+00 0.000000000E+00 4.719936956E+02
2.636720000E-03 3.723900000E+00 0.000000000E+00 4.702054067E+02
2.645570000E-03 3.722400000E+00 0.000000000E+00 4.686324686E+02
2.651850000E-03 3.721400000E+00 0.000000000E+00 4.675226729E+02
2.658130000E-03 3.720300000E+00 0.000000000E+00 4.664181210E+02
2.664410000E-03 3.719300000E+00 0.000000000E+00 4.653187760E+02
2.670690000E-03 3.718300000E+00 0.000000000E+00 4.642246011E+02
2.676970000E-03 3.717200000E+00 0.000000000E+00 4.631355600E+02
2.691090000E-03 3.714900000E+00 0.000000000E+00 4.607055134E+02
2.698150000E-03 3.713700000E+00 0.000000000E+00 4.595000278E+02
2.705210000E-03 3.712500000E+00 0.000000000E+00 4.583008343E+02
2.711870000E-03 3.711400000E+00 0.000000000E+00 4.571753071E+02
2.718530000E-03 3.710300000E+00 0.000000000E+00 4.560552946E+02
2.719820000E-03 3.710100000E+00 0.000000000E+00 4.558389893E+02
2.725350000E-03 3.709200000E+00 0.000000000E+00 4.549140477E+02
2.733210000E-03 3.707900000E+00 0.000000000E+00 4.536058334E+02
2.738770000E-03 3.707000000E+00 0.000000000E+00 4.526849644E+02
2.745470000E-03 3.705900000E+00 0.000000000E+00 4.515802394E+02
2.752180000E-03 3.704700000E+00 0.000000000E+00 4.504792564E+02
2.756090000E-03 3.704100000E+00 0.000000000E+00 4.498401721E+02
2.763340000E-03 3.702900000E+00 0.000000000E+00 4.486599550E+02
2.768360000E-03 3.702100000E+00 0.000000000E+00 4.478463784E+02
2.770870000E-03 3.701700000E+00 0.000000000E+00 4.474406955E+02
2.776730000E-03 3.700700000E+00 0.000000000E+00 4.464964184E+02
2.778400000E-03 3.700400000E+00 0.000000000E+00 4.462280449E+02
2.783420000E-03 3.699600000E+00 0.000000000E+00 4.454232563E+02
2.785930000E-03 3.699200000E+00 0.000000000E+00 4.450219496E+02
2.787610000E-03 3.698900000E+00 0.000000000E+00 4.447537496E+02
2.789070000E-03 3.698600000E+00 0.000000000E+00 4.445209335E+02
2.791270000E-03 3.698200000E+00 0.000000000E+00 4.441705747E+02
2.792370000E-03 3.698000000E+00 0.000000000E+00 4.439956023E+02
2.792920000E-03 3.697900000E+00 0.000000000E+00 4.439081678E+02
2.794300000E-03 3.697600000E+00 0.000000000E+00 4.436889382E+02
2.800160000E-03 3.696500000E+00 0.000000000E+00 4.427604137E+02
2.801830000E-03 3.696200000E+00 0.000000000E+00 4.424965112E+02
2.806850000E-03 3.695200000E+00 0.000000000E+00 4.417051143E+02
2.810200000E-03 3.694600000E+00 0.000000000E+00 4.411785638E+02
2.815220000E-03 3.693600000E+00 0.000000000E+00 4.403918699E+02
2.820240000E-03 3.692700000E+00 0.000000000E+00 4.396079766E+02
2.826940000E-03 3.691400000E+00 0.000000000E+00 4.385660821E+02
2.832680000E-03 3.690300000E+00 0.000000000E+00 4.376773938E+02
2.839390000E-03 3.689000000E+00 0.000000000E+00 4.366430818E+02
2.846090000E-03 3.687700000E+00 0.000000000E+00 4.356151773E+02
2.853720000E-03 3.686200000E+00 0.000000000E+00 4.344504717E+02
2.859510000E-03 3.685100000E+00 0.000000000E+00 4.335707866E+02
2.862340000E-03 3.684600000E+00 0.000000000E+00 4.331421145E+02
2.867820000E-03 3.683500000E+00 0.000000000E+00 4.323144409E+02
2.878090000E-03 3.681600000E+00 0.000000000E+00 4.307717966E+02
2.887080000E-03 3.679800000E+00 0.000000000E+00 4.294304280E+02
2.902810000E-03 3.676800000E+00 0.000000000E+00 4.271033929E+02
2.914610000E-03 3.674500000E+00 0.000000000E+00 4.253742353E+02
2.932310000E-03 3.671100000E+00 0.000000000E+00 4.228065928E+02
2.950010000E-03 3.667700000E+00 0.000000000E+00 4.202697618E+02
2.962330000E-03 3.665300000E+00 0.000000000E+00 4.185219067E+02
2.964530000E-03 3.664800000E+00 0.000000000E+00 4.182113185E+02
2.971790000E-03 3.663200000E+00 0.000000000E+00 4.171896399E+02
2.979050000E-03 3.661700000E+00 0.000000000E+00 4.161729410E+02
2.986310000E-03 3.660100000E+00 0.000000000E+00 4.151611855E+02
2.993580000E-03 3.658500000E+00 0.000000000E+00 4.141529540E+02
3.000840000E-03 3.656900000E+00 0.000000000E+00 4.131509844E+02
3.008100000E-03 3.655400000E+00 0.000000000E+00 4.121538513E+02
3.015360000E-03 3.653800000E+00 0.000000000E+00 4.111615197E+02
3.022620000E-03 3.652200000E+00 0.000000000E+00 4.101739550E+02
3.029880000E-03 3.650700000E+00 0.000000000E+00 4.091911231E+02
3.037140000E-03 3.649100000E+00 0.000000000E+00 4.082129899E+02
3.044400000E-03 3.647500000E+00 0.000000000E+00 4.072395217E+02
3.051660000E-03 3.645900000E+00 0.000000000E+00 4.062706855E+02
3.058930000E-03 3.644400000E+00 0.000000000E+00 4.053051230E+02
3.066190000E-03 3.642800000E+00 0.000000000E+00 4.043454580E+02
3.073450000E-03 3.641200000E+00 0.000000000E+00 4.033903268E+02
3.080710000E-03 3.639700000E+00 0.000000000E+00 4.024396973E+02
3.087970000E-03 3.638100000E+00 0.000000000E+00 4.014935378E+02
3.095230000E-03 3.636500000E+00 0.000000000E+00 4.005518168E+02
3.111860000E-03 3.632700000E+00 0.000000000E+00 3.984112396E+02
3.143030000E-03 3.625200000E+00 0.000000000E+00 3.944601229E+02
3.197580000E-03 3.612000000E+00 0.000000000E+00 3.877307214E+02
3.231520000E-03 3.603800000E+00 0.000000000E+00 3.836584641E+02
3.257990000E-03 3.596700000E+00 0.000000000E+00 3.805413767E+02
3.270890000E-03 3.593200000E+00 0.000000000E+00 3.790405669E+02
3.282180000E-03 3.590100000E+00 0.000000000E+00 3.777367481E+02
3.301950000E-03 3.584800000E+00 0.000000000E+00 3.754750980E+02
3.316770000E-03 3.580800000E+00 0.000000000E+00 3.737973993E+02
3.327880000E-03 3.577800000E+00 0.000000000E+00 3.725494910E+02
3.336220000E-03 3.575500000E+00 0.000000000E+00 3.716181787E+02
3.348720000E-03 3.572000000E+00 0.000000000E+00 3.702310136E+02
3.354980000E-03 3.570100000E+00 0.000000000E+00 3.695402059E+02
3.361230000E-03 3.568300000E+00 0.000000000E+00 3.688530687E+02
3.361240000E-03 3.568200000E+00 0.000000000E+00 3.688519713E+02
3.363570000E-03 3.567600000E+00 0.000000000E+00 3.685964615E+02
3.366620000E-03 3.566600000E+00 0.000000000E+00 3.682625304E+02
3.383190000E-03 3.561700000E+00 0.000000000E+00 3.664588746E+02
3.391470000E-03 3.559300000E+00 0.000000000E+00 3.655641949E+02
3.399760000E-03 3.556800000E+00 0.000000000E+00 3.646728004E+02
3.408050000E-03 3.554300000E+00 0.000000000E+00 3.637857426E+02
3.413490000E-03 3.552700000E+00 0.000000000E+00 3.632059857E+02
3.417570000E-03 3.551500000E+00 0.000000000E+00 3.627723792E+02
3.423680000E-03 3.549700000E+00 0.000000000E+00 3.621249649E+02
3.426740000E-03 3.548800000E+00 0.000000000E+00 3.618015957E+02
3.429800000E-03 3.547900000E+00 0.000000000E+00 3.614788034E+02
3.435700000E-03 3.546100000E+00 0.000000000E+00 3.608580493E+02
3.439820000E-03 3.544900000E+00 0.000000000E+00 3.604258362E+02
3.443270000E-03 3.543800000E+00 0.000000000E+00 3.600647059E+02
3.446370000E-03 3.542800000E+00 0.000000000E+00 3.597408288E+02
3.447930000E-03 3.542300000E+00 0.000000000E+00 3.595780657E+02
3.449090000E-03 3.541900000E+00 0.000000000E+00 3.594571322E+02
3.449860000E-03 3.541700000E+00 0.000000000E+00 3.593769023E+02
3.457770000E-03 3.539100000E+00 0.000000000E+00 3.585547911E+02
3.459840000E-03 3.538400000E+00 0.000000000E+00 3.583402701E+02
3.466050000E-03 3.536400000E+00 0.000000000E+00 3.576982444E+02
3.469410000E-03 3.535300000E+00 0.000000000E+00 3.573518264E+02
3.474440000E-03 3.533700000E+00 0.000000000E+00 3.568344827E+02
3.479480000E-03 3.532000000E+00 0.000000000E+00 3.563176107E+02
3.485520000E-03 3.530000000E+00 0.000000000E+00 3.557001538E+02
3.491560000E-03 3.528000000E+00 0.000000000E+00 3.550848331E+02
3.499200000E-03 3.525500000E+00 0.000000000E+00 3.543095565E+02
3.507490000E-03 3.522700000E+00 0.000000000E+00 3.534721410E+02
3.515770000E-03 3.519900000E+00 0.000000000E+00 3.526396778E+02
3.529350000E-03 3.515300000E+00 0.000000000E+00 3.512828141E+02
3.532340000E-03 3.514200000E+00 0.000000000E+00 3.509854657E+02
3.534950000E-03 3.513300000E+00 0.000000000E+00 3.507263186E+02
3.538850000E-03 3.511900000E+00 0.000000000E+00 3.503397997E+02
3.542750000E-03 3.510400000E+00 0.000000000E+00 3.499541317E+02
3.551280000E-03 3.507300000E+00 0.000000000E+00 3.491135591E+02
3.559810000E-03 3.504200000E+00 0.000000000E+00 3.482770148E+02
3.568340000E-03 3.501000000E+00 0.000000000E+00 3.474444700E+02
3.593940000E-03 3.491700000E+00 0.000000000E+00 3.449695877E+02
3.602500000E-03 3.488500000E+00 0.000000000E+00 3.441498959E+02
3.611000000E-03 3.485200000E+00 0.000000000E+00 3.433397951E+02
3.619530000E-03 3.481900000E+00 0.000000000E+00 3.425306601E+02
3.632320000E-03 3.476800000E+00 0.000000000E+00 3.413245529E+02
3.636590000E-03 3.475100000E+00 0.000000000E+00 3.409237775E+02
3.648320000E-03 3.470400000E+00 0.000000000E+00 3.398276467E+02
3.654180000E-03 3.468000000E+00 0.000000000E+00 3.392826845E+02
3.660040000E-03 3.465600000E+00 0.000000000E+00 3.387394673E+02
3.661440000E-03 3.465000000E+00 0.000000000E+00 3.386099458E+02
3.663160000E-03 3.464300000E+00 0.000000000E+00 3.384509549E+02
3.666130000E-03 3.463100000E+00 0.000000000E+00 3.381767695E+02
3.670090000E-03 3.461300000E+00 0.000000000E+00 3.378118793E+02
3.677030000E-03 3.458300000E+00 0.000000000E+00 3.371742956E+02
3.681190000E-03 3.456500000E+00 0.000000000E+00 3.367932652E+02
3.690210000E-03 3.452600000E+00 0.000000000E+00 3.359700396E+02
3.699220000E-03 3.448600000E+00 0.000000000E+00 3.351517347E+02
3.708240000E-03 3.444700000E+00 0.000000000E+00 3.343365046E+02
3.712310000E-03 3.442900000E+00 0.000000000E+00 3.339699540E+02
3.718420000E-03 3.440100000E+00 0.000000000E+00 3.334211843E+02
3.724520000E-03 3.437400000E+00 0.000000000E+00 3.328751087E+02
3.730710000E-03 3.434400000E+00 0.000000000E+00 3.323228018E+02
3.736890000E-03 3.431400000E+00 0.000000000E+00 3.317732125E+02
3.740600000E-03 3.429600000E+00 0.000000000E+00 3.314441533E+02
3.744300000E-03 3.427800000E+00 0.000000000E+00 3.311166306E+02
3.753320000E-03 3.423400000E+00 0.000000000E+00 3.303208892E+02
3.755570000E-03 3.422300000E+00 0.000000000E+00 3.301229907E+02
3.761490000E-03 3.419400000E+00 0.000000000E+00 3.296034284E+02
3.762340000E-03 3.419000000E+00 0.000000000E+00 3.295289634E+02
3.764540000E-03 3.418000000E+00 0.000000000E+00 3.293363864E+02
3.767350000E-03 3.416600000E+00 0.000000000E+00 3.290907402E+02
3.774810000E-03 3.412900000E+00 0.000000000E+00 3.284403718E+02
3.777760000E-03 3.411400000E+00 0.000000000E+00 3.281838973E+02
3.780340000E-03 3.410000000E+00 0.000000000E+00 3.279599189E+02
3.784850000E-03 3.407600000E+00 0.000000000E+00 3.275691243E+02
3.788240000E-03 3.405900000E+00 0.000000000E+00 3.272759910E+02
3.790780000E-03 3.404500000E+00 0.000000000E+00 3.270567007E+02
3.794590000E-03 3.402500000E+00 0.000000000E+00 3.267283158E+02
3.796500000E-03 3.401500000E+00 0.000000000E+00 3.265639405E+02
3.798400000E-03 3.400500000E+00 0.000000000E+00 3.264005897E+02
3.802910000E-03 3.398100000E+00 0.000000000E+00 3.260135002E+02
