# Data retrieved from https://www-nds.iaea.org/epdl97/za1to100.htm 03/01/2021
# Element, V  (Z = 23) 
# Atomic weight, g mol-1 = 50.942 
# Nominal density, g cm-3 =  6.11000E+0 
# Relativistic correction estimate f_rel(5CL)*,  e atom-1 =  0 
# Nuclear Thomson correction f_NT*, e atom-1 =  0 
#    E [keV]      f1 [e atom-1]      f2 [e atom-1]    Wavelength [nm] 
1.000000000E-03 5.926300000E+00 0.000000000E+00 1.239800000E+03
1.125000000E-03 5.924600000E+00 0.000000000E+00 1.102044444E+03
1.265630000E-03 5.922800000E+00 0.000000000E+00 9.795911917E+02
1.423830000E-03 5.920700000E+00 0.000000000E+00 8.707500193E+02
1.601810000E-03 5.918300000E+00 0.000000000E+00 7.739994132E+02
1.786780000E-03 5.915900000E+00 0.000000000E+00 6.938738961E+02
1.948630000E-03 5.913800000E+00 0.000000000E+00 6.362418725E+02
2.090250000E-03 5.910600000E+00 0.000000000E+00 5.931347925E+02
2.214160000E-03 5.907100000E+00 0.000000000E+00 5.599414676E+02
2.322590000E-03 5.904100000E+00 0.000000000E+00 5.338006277E+02
2.417470000E-03 5.901400000E+00 0.000000000E+00 5.128502112E+02
2.500480000E-03 5.899100000E+00 0.000000000E+00 4.958248016E+02
2.573120000E-03 5.897100000E+00 0.000000000E+00 4.818275090E+02
2.636680000E-03 5.895300000E+00 0.000000000E+00 4.702125400E+02
2.692290000E-03 5.893800000E+00 0.000000000E+00 4.605001690E+02
2.740950000E-03 5.892400000E+00 0.000000000E+00 4.523249238E+02
2.783530000E-03 5.891200000E+00 0.000000000E+00 4.454056540E+02
2.858040000E-03 5.889100000E+00 0.000000000E+00 4.337937888E+02
2.913930000E-03 5.887600000E+00 0.000000000E+00 4.254735014E+02
2.955840000E-03 5.886400000E+00 0.000000000E+00 4.194408358E+02
2.987280000E-03 5.885500000E+00 0.000000000E+00 4.150263785E+02
3.010850000E-03 5.884800000E+00 0.000000000E+00 4.117774051E+02
3.028530000E-03 5.884400000E+00 0.000000000E+00 4.093735244E+02
3.055060000E-03 5.883600000E+00 0.000000000E+00 4.058185437E+02
3.068320000E-03 5.883200000E+00 0.000000000E+00 4.040647651E+02
3.081580000E-03 5.882900000E+00 0.000000000E+00 4.023260795E+02
3.089170000E-03 5.882700000E+00 0.000000000E+00 4.013375761E+02
3.096750000E-03 5.882400000E+00 0.000000000E+00 4.003552111E+02
3.104340000E-03 5.882200000E+00 0.000000000E+00 3.993763570E+02
3.108170000E-03 5.882100000E+00 0.000000000E+00 3.988842309E+02
3.119510000E-03 5.881800000E+00 0.000000000E+00 3.974342124E+02
3.123470000E-03 5.881700000E+00 0.000000000E+00 3.969303371E+02
3.131120000E-03 5.881500000E+00 0.000000000E+00 3.959605509E+02
3.138770000E-03 5.881300000E+00 0.000000000E+00 3.949954919E+02
3.146420000E-03 5.881100000E+00 0.000000000E+00 3.940351256E+02
3.151920000E-03 5.880900000E+00 0.000000000E+00 3.933475469E+02
3.157430000E-03 5.880800000E+00 0.000000000E+00 3.926611200E+02
3.163400000E-03 5.880600000E+00 0.000000000E+00 3.919200860E+02
3.166380000E-03 5.880500000E+00 0.000000000E+00 3.915512352E+02
3.169370000E-03 5.880400000E+00 0.000000000E+00 3.911818437E+02
3.173190000E-03 5.880300000E+00 0.000000000E+00 3.907109250E+02
3.175110000E-03 5.880300000E+00 0.000000000E+00 3.904746607E+02
3.178930000E-03 5.880100000E+00 0.000000000E+00 3.900054421E+02
3.181800000E-03 5.880100000E+00 0.000000000E+00 3.896536552E+02
3.183240000E-03 5.880000000E+00 0.000000000E+00 3.894773878E+02
3.183950000E-03 5.880000000E+00 0.000000000E+00 3.893905369E+02
3.184490000E-03 5.880000000E+00 0.000000000E+00 3.893245072E+02
3.184790000E-03 5.880000000E+00 0.000000000E+00 3.892878337E+02
3.185020000E-03 5.880000000E+00 0.000000000E+00 3.892597221E+02
3.192320000E-03 5.879800000E+00 0.000000000E+00 3.883695870E+02
3.194230000E-03 5.879700000E+00 0.000000000E+00 3.881373602E+02
3.199970000E-03 5.879600000E+00 0.000000000E+00 3.874411323E+02
3.202610000E-03 5.879500000E+00 0.000000000E+00 3.871217538E+02
3.206570000E-03 5.879400000E+00 0.000000000E+00 3.866436722E+02
3.210520000E-03 5.879300000E+00 0.000000000E+00 3.861679728E+02
3.216720000E-03 5.879100000E+00 0.000000000E+00 3.854236614E+02
3.219820000E-03 5.879000000E+00 0.000000000E+00 3.850525806E+02
3.222920000E-03 5.878900000E+00 0.000000000E+00 3.846822136E+02
3.230570000E-03 5.878700000E+00 0.000000000E+00 3.837712849E+02
3.238220000E-03 5.878500000E+00 0.000000000E+00 3.828646602E+02
3.245870000E-03 5.878300000E+00 0.000000000E+00 3.819623090E+02
3.253520000E-03 5.878100000E+00 0.000000000E+00 3.810642012E+02
3.257350000E-03 5.878000000E+00 0.000000000E+00 3.806161450E+02
3.261170000E-03 5.877800000E+00 0.000000000E+00 3.801703070E+02
3.265370000E-03 5.877700000E+00 0.000000000E+00 3.796813225E+02
3.273720000E-03 5.877500000E+00 0.000000000E+00 3.787129015E+02
3.282020000E-03 5.877300000E+00 0.000000000E+00 3.777551630E+02
3.290240000E-03 5.877000000E+00 0.000000000E+00 3.768114180E+02
3.306570000E-03 5.876600000E+00 0.000000000E+00 3.749504774E+02
3.322640000E-03 5.876100000E+00 0.000000000E+00 3.731370236E+02
3.338450000E-03 5.875700000E+00 0.000000000E+00 3.713699471E+02
3.354030000E-03 5.875300000E+00 0.000000000E+00 3.696448750E+02
3.369350000E-03 5.874800000E+00 0.000000000E+00 3.679641474E+02
3.399530000E-03 5.874000000E+00 0.000000000E+00 3.646974729E+02
3.428760000E-03 5.873200000E+00 0.000000000E+00 3.615884460E+02
3.457080000E-03 5.872400000E+00 0.000000000E+00 3.586263552E+02
3.484520000E-03 5.871600000E+00 0.000000000E+00 3.558022339E+02
3.511100000E-03 5.870900000E+00 0.000000000E+00 3.531087124E+02
3.536840000E-03 5.870100000E+00 0.000000000E+00 3.505388991E+02
3.561780000E-03 5.869400000E+00 0.000000000E+00 3.480843848E+02
3.585950000E-03 5.868800000E+00 0.000000000E+00 3.457382284E+02
3.609360000E-03 5.868100000E+00 0.000000000E+00 3.434957998E+02
3.790770000E-03 5.863000000E+00 0.000000000E+00 3.270575635E+02
3.858800000E-03 5.861100000E+00 0.000000000E+00 3.212915932E+02
3.918320000E-03 5.859500000E+00 0.000000000E+00 3.164111150E+02
3.970410000E-03 5.858000000E+00 0.000000000E+00 3.122599429E+02
4.015980000E-03 5.856200000E+00 0.000000000E+00 3.087166769E+02
4.055860000E-03 5.853600000E+00 0.000000000E+00 3.056811626E+02
4.090750000E-03 5.851400000E+00 0.000000000E+00 3.030740084E+02
4.121280000E-03 5.849400000E+00 0.000000000E+00 3.008288687E+02
4.148000000E-03 5.847700000E+00 0.000000000E+00 2.988910318E+02
4.171370000E-03 5.846200000E+00 0.000000000E+00 2.972165020E+02
4.212280000E-03 5.843600000E+00 0.000000000E+00 2.943299116E+02
4.242960000E-03 5.841600000E+00 0.000000000E+00 2.922016705E+02
4.265970000E-03 5.840200000E+00 0.000000000E+00 2.906255787E+02
4.283230000E-03 5.839100000E+00 0.000000000E+00 2.894544538E+02
4.296170000E-03 5.838200000E+00 0.000000000E+00 2.885826213E+02
4.305880000E-03 5.837600000E+00 0.000000000E+00 2.879318513E+02
4.320440000E-03 5.836700000E+00 0.000000000E+00 2.869615132E+02
4.327720000E-03 5.836200000E+00 0.000000000E+00 2.864787925E+02
4.331360000E-03 5.836000000E+00 0.000000000E+00 2.862380407E+02
4.335000000E-03 5.835800000E+00 0.000000000E+00 2.859976932E+02
4.345670000E-03 5.835100000E+00 0.000000000E+00 2.852954780E+02
4.356340000E-03 5.834400000E+00 0.000000000E+00 2.845967027E+02
4.367010000E-03 5.833700000E+00 0.000000000E+00 2.839013421E+02
4.377680000E-03 5.833000000E+00 0.000000000E+00 2.832093712E+02
4.388350000E-03 5.832300000E+00 0.000000000E+00 2.825207652E+02
4.393680000E-03 5.832000000E+00 0.000000000E+00 2.821780375E+02
4.399020000E-03 5.831700000E+00 0.000000000E+00 2.818354997E+02
4.404350000E-03 5.831300000E+00 0.000000000E+00 2.814944316E+02
4.409690000E-03 5.831000000E+00 0.000000000E+00 2.811535505E+02
4.415020000E-03 5.830600000E+00 0.000000000E+00 2.808141299E+02
4.420360000E-03 5.830300000E+00 0.000000000E+00 2.804748934E+02
4.425690000E-03 5.830000000E+00 0.000000000E+00 2.801371086E+02
4.428360000E-03 5.829800000E+00 0.000000000E+00 2.799682049E+02
4.431030000E-03 5.829600000E+00 0.000000000E+00 2.797995049E+02
4.433700000E-03 5.829400000E+00 0.000000000E+00 2.796310080E+02
4.437700000E-03 5.829200000E+00 0.000000000E+00 2.793789576E+02
4.439700000E-03 5.829100000E+00 0.000000000E+00 2.792531027E+02
4.440700000E-03 5.829000000E+00 0.000000000E+00 2.791902178E+02
4.440950000E-03 5.829000000E+00 0.000000000E+00 2.791745010E+02
4.441140000E-03 5.829000000E+00 0.000000000E+00 2.791625574E+02
4.441280000E-03 5.829000000E+00 0.000000000E+00 2.791537575E+02
4.441490000E-03 5.829000000E+00 0.000000000E+00 2.791405587E+02
4.441590000E-03 5.828900000E+00 0.000000000E+00 2.791342740E+02
4.441870000E-03 5.828900000E+00 0.000000000E+00 2.791166783E+02
4.442520000E-03 5.828900000E+00 0.000000000E+00 2.790758398E+02
4.452370000E-03 5.828300000E+00 0.000000000E+00 2.784584390E+02
4.455040000E-03 5.828100000E+00 0.000000000E+00 2.782915529E+02
4.463040000E-03 5.827600000E+00 0.000000000E+00 2.777927153E+02
4.468380000E-03 5.827200000E+00 0.000000000E+00 2.774607352E+02
4.473710000E-03 5.826900000E+00 0.000000000E+00 2.771301671E+02
4.479050000E-03 5.826500000E+00 0.000000000E+00 2.767997678E+02
4.484380000E-03 5.826200000E+00 0.000000000E+00 2.764707719E+02
4.489720000E-03 5.825900000E+00 0.000000000E+00 2.761419420E+02
4.495050000E-03 5.825500000E+00 0.000000000E+00 2.758145071E+02
4.505720000E-03 5.824800000E+00 0.000000000E+00 2.751613505E+02
4.516390000E-03 5.824200000E+00 0.000000000E+00 2.745112800E+02
4.527060000E-03 5.823500000E+00 0.000000000E+00 2.738642739E+02
4.537730000E-03 5.822800000E+00 0.000000000E+00 2.732203106E+02
4.548400000E-03 5.822100000E+00 0.000000000E+00 2.725793686E+02
4.555370000E-03 5.821700000E+00 0.000000000E+00 2.721623051E+02
4.569100000E-03 5.820800000E+00 0.000000000E+00 2.713444661E+02
4.582400000E-03 5.819900000E+00 0.000000000E+00 2.705569134E+02
4.608170000E-03 5.818300000E+00 0.000000000E+00 2.690438938E+02
4.632330000E-03 5.816700000E+00 0.000000000E+00 2.676406905E+02
4.654980000E-03 5.815300000E+00 0.000000000E+00 2.663384161E+02
4.697440000E-03 5.812600000E+00 0.000000000E+00 2.639309922E+02
4.734600000E-03 5.810200000E+00 0.000000000E+00 2.618595024E+02
4.799620000E-03 5.806000000E+00 0.000000000E+00 2.583121164E+02
4.848390000E-03 5.802900000E+00 0.000000000E+00 2.557137524E+02
4.921540000E-03 5.798200000E+00 0.000000000E+00 2.519130191E+02
4.994690000E-03 5.793600000E+00 0.000000000E+00 2.482236135E+02
5.015840000E-03 5.792200000E+00 0.000000000E+00 2.471769434E+02
5.040530000E-03 5.790600000E+00 0.000000000E+00 2.459661980E+02
5.053340000E-03 5.789800000E+00 0.000000000E+00 2.453426842E+02
5.065690000E-03 5.789000000E+00 0.000000000E+00 2.447445462E+02
5.078040000E-03 5.788200000E+00 0.000000000E+00 2.441493175E+02
5.093040000E-03 5.787300000E+00 0.000000000E+00 2.434302499E+02
5.114610000E-03 5.785900000E+00 0.000000000E+00 2.424036241E+02
5.127420000E-03 5.785100000E+00 0.000000000E+00 2.417980193E+02
5.139770000E-03 5.784300000E+00 0.000000000E+00 2.412170194E+02
5.152120000E-03 5.783500000E+00 0.000000000E+00 2.406388050E+02
5.166810000E-03 5.782600000E+00 0.000000000E+00 2.399546335E+02
5.201500000E-03 5.780300000E+00 0.000000000E+00 2.383543209E+02
5.213850000E-03 5.779600000E+00 0.000000000E+00 2.377897331E+02
5.226200000E-03 5.778800000E+00 0.000000000E+00 2.372278137E+02
5.238070000E-03 5.778000000E+00 0.000000000E+00 2.366902313E+02
5.250890000E-03 5.777200000E+00 0.000000000E+00 2.361123543E+02
5.262760000E-03 5.776400000E+00 0.000000000E+00 2.355798098E+02
5.263240000E-03 5.776400000E+00 0.000000000E+00 2.355583253E+02
5.357280000E-03 5.770400000E+00 0.000000000E+00 2.314234089E+02
5.639410000E-03 5.752300000E+00 0.000000000E+00 2.198456931E+02
5.650850000E-03 5.751600000E+00 0.000000000E+00 2.194006211E+02
5.678900000E-03 5.749800000E+00 0.000000000E+00 2.183169276E+02
5.692810000E-03 5.748900000E+00 0.000000000E+00 2.177834848E+02
5.706720000E-03 5.748000000E+00 0.000000000E+00 2.172526425E+02
5.720630000E-03 5.747100000E+00 0.000000000E+00 2.167243818E+02
5.762360000E-03 5.744500000E+00 0.000000000E+00 2.151549018E+02
5.778220000E-03 5.743500000E+00 0.000000000E+00 2.145643468E+02
5.790180000E-03 5.742700000E+00 0.000000000E+00 2.141211499E+02
5.805980000E-03 5.741700000E+00 0.000000000E+00 2.135384552E+02
5.819860000E-03 5.740800000E+00 0.000000000E+00 2.130291794E+02
5.859730000E-03 5.738200000E+00 0.000000000E+00 2.115797144E+02
5.873640000E-03 5.737400000E+00 0.000000000E+00 2.110786497E+02
5.887550000E-03 5.736500000E+00 0.000000000E+00 2.105799526E+02
5.901460000E-03 5.735600000E+00 0.000000000E+00 2.100836064E+02
5.920510000E-03 5.734400000E+00 0.000000000E+00 2.094076355E+02
5.929030000E-03 5.733800000E+00 0.000000000E+00 2.091067173E+02
5.932580000E-03 5.733600000E+00 0.000000000E+00 2.089815898E+02
5.938210000E-03 5.733200000E+00 0.000000000E+00 2.087834549E+02
5.944070000E-03 5.732900000E+00 0.000000000E+00 2.085776244E+02
5.961650000E-03 5.731700000E+00 0.000000000E+00 2.079625607E+02
5.967440000E-03 5.731400000E+00 0.000000000E+00 2.077607818E+02
5.982060000E-03 5.730400000E+00 0.000000000E+00 2.072530199E+02
5.982970000E-03 5.730400000E+00 0.000000000E+00 2.072214970E+02
5.984680000E-03 5.730300000E+00 0.000000000E+00 2.071622877E+02
5.987680000E-03 5.730100000E+00 0.000000000E+00 2.070584934E+02
5.994990000E-03 5.729600000E+00 0.000000000E+00 2.068060164E+02
5.997590000E-03 5.729400000E+00 0.000000000E+00 2.067163644E+02
6.011290000E-03 5.728200000E+00 0.000000000E+00 2.062452485E+02
6.013070000E-03 5.728000000E+00 0.000000000E+00 2.061841954E+02
6.016400000E-03 5.727700000E+00 0.000000000E+00 2.060700751E+02
6.022230000E-03 5.727100000E+00 0.000000000E+00 2.058705828E+02
6.026600000E-03 5.726700000E+00 0.000000000E+00 2.057213022E+02
6.033160000E-03 5.726000000E+00 0.000000000E+00 2.054976165E+02
6.036440000E-03 5.725700000E+00 0.000000000E+00 2.053859560E+02
6.039720000E-03 5.725400000E+00 0.000000000E+00 2.052744167E+02
6.045160000E-03 5.724900000E+00 0.000000000E+00 2.050896916E+02
6.049240000E-03 5.724500000E+00 0.000000000E+00 2.049513658E+02
6.052300000E-03 5.724200000E+00 0.000000000E+00 2.048477438E+02
6.054590000E-03 5.723900000E+00 0.000000000E+00 2.047702652E+02
6.056310000E-03 5.723800000E+00 0.000000000E+00 2.047121102E+02
6.058510000E-03 5.723600000E+00 0.000000000E+00 2.046377740E+02
6.060360000E-03 5.723400000E+00 0.000000000E+00 2.045753058E+02
6.060920000E-03 5.723300000E+00 0.000000000E+00 2.045564040E+02
6.061470000E-03 5.723300000E+00 0.000000000E+00 2.045378431E+02
6.066860000E-03 5.722700000E+00 0.000000000E+00 2.043561249E+02
6.069550000E-03 5.722500000E+00 0.000000000E+00 2.042655551E+02
6.083200000E-03 5.721100000E+00 0.000000000E+00 2.038072067E+02
6.086860000E-03 5.720800000E+00 0.000000000E+00 2.036846584E+02
6.102180000E-03 5.719300000E+00 0.000000000E+00 2.031732922E+02
6.117200000E-03 5.717800000E+00 0.000000000E+00 2.026744262E+02
6.134450000E-03 5.716100000E+00 0.000000000E+00 2.021045081E+02
6.147370000E-03 5.714900000E+00 0.000000000E+00 2.016797427E+02
6.160290000E-03 5.713600000E+00 0.000000000E+00 2.012567590E+02
6.180790000E-03 5.711600000E+00 0.000000000E+00 2.005892451E+02
6.201300000E-03 5.709600000E+00 0.000000000E+00 1.999258220E+02
6.215920000E-03 5.708200000E+00 0.000000000E+00 1.994555914E+02
6.230530000E-03 5.706700000E+00 0.000000000E+00 1.989878871E+02
6.248650000E-03 5.705000000E+00 0.000000000E+00 1.984108567E+02
6.263380000E-03 5.703500000E+00 0.000000000E+00 1.979442410E+02
6.278170000E-03 5.702100000E+00 0.000000000E+00 1.974779275E+02
6.297440000E-03 5.700200000E+00 0.000000000E+00 1.968736502E+02
6.306360000E-03 5.699300000E+00 0.000000000E+00 1.965951833E+02
6.327480000E-03 5.697300000E+00 0.000000000E+00 1.959389836E+02
6.342500000E-03 5.695800000E+00 0.000000000E+00 1.954749704E+02
6.357520000E-03 5.694300000E+00 0.000000000E+00 1.950131498E+02
6.373470000E-03 5.692200000E+00 1.007630000E-07 1.945251174E+02
6.402080000E-03 5.687000000E+00 1.311160000E-06 1.936558119E+02
6.403860000E-03 5.686700000E+00 1.521370000E-06 1.936019838E+02
6.482650000E-03 5.668600000E+00 3.548050000E-04 1.912489491E+02
6.524800000E-03 5.654200000E+00 2.751820000E-03 1.900134870E+02
6.562270000E-03 5.638100000E+00 1.069710000E-02 1.889285263E+02
6.583690000E-03 5.629400000E+00 1.940860000E-02 1.883138483E+02
6.608110000E-03 5.622200000E+00 3.305840000E-02 1.876179422E+02
6.670330000E-03 5.627700000E+00 7.089470000E-02 1.858678656E+02
6.701090000E-03 5.639500000E+00 8.179170000E-02 1.850146767E+02
6.740720000E-03 5.654500000E+00 8.637120000E-02 1.839269396E+02
6.818630000E-03 5.671600000E+00 8.246240000E-02 1.818253813E+02
7.062430000E-03 5.681400000E+00 6.451110000E-02 1.755486426E+02
7.333100000E-03 5.671400000E+00 4.853820000E-02 1.690690158E+02
7.593230000E-03 5.653900000E+00 3.639570000E-02 1.632770244E+02
7.850360000E-03 5.621800000E+00 2.689650000E-02 1.579290631E+02
7.917810000E-03 5.612900000E+00 2.477370000E-02 1.565837018E+02
7.957250000E-03 5.607700000E+00 2.358940000E-02 1.558075968E+02
7.976740000E-03 5.605100000E+00 2.301850000E-02 1.554269037E+02
7.996230000E-03 5.602400000E+00 2.246890000E-02 1.550480664E+02
8.015720000E-03 5.599800000E+00 2.191940000E-02 1.546710713E+02
8.052160000E-03 5.594800000E+00 2.091300000E-02 1.539711084E+02
8.074190000E-03 5.591700000E+00 2.032950000E-02 1.535510064E+02
8.093680000E-03 5.589000000E+00 1.981330000E-02 1.531812476E+02
8.113170000E-03 5.586300000E+00 1.931870000E-02 1.528132653E+02
8.132660000E-03 5.583600000E+00 1.883430000E-02 1.524470468E+02
8.152150000E-03 5.580900000E+00 1.834990000E-02 1.520825794E+02
8.185510000E-03 5.576200000E+00 1.754640000E-02 1.514627677E+02
8.210620000E-03 5.572700000E+00 1.696070000E-02 1.509995591E+02
8.230110000E-03 5.570000000E+00 1.651000000E-02 1.506419720E+02
8.249600000E-03 5.567200000E+00 1.608160000E-02 1.502860745E+02
8.269090000E-03 5.564500000E+00 1.565320000E-02 1.499318547E+02
8.307590000E-03 5.559000000E+00 1.483060000E-02 1.492370230E+02
8.472780000E-03 5.530700000E+00 1.165450000E-02 1.463274156E+02
8.514740000E-03 5.522400000E+00 1.093260000E-02 1.456063250E+02
8.535590000E-03 5.518200000E+00 1.058370000E-02 1.452506505E+02
8.544700000E-03 5.516400000E+00 1.043350000E-02 1.450957904E+02
8.553060000E-03 5.514800000E+00 1.030190000E-02 1.449539697E+02
8.577300000E-03 5.510000000E+00 9.919820000E-03 1.445443205E+02
8.595160000E-03 5.506400000E+00 9.638440000E-03 1.442439699E+02
8.616210000E-03 5.502200000E+00 9.319320000E-03 1.438915718E+02
8.639870000E-03 5.497500000E+00 8.970870000E-03 1.434975295E+02
8.702440000E-03 5.485100000E+00 8.083880000E-03 1.424657912E+02
8.723290000E-03 5.480900000E+00 7.803930000E-03 1.421252761E+02
8.744150000E-03 5.476800000E+00 7.529160000E-03 1.417862228E+02
8.765000000E-03 5.472100000E+00 7.264230000E-03 1.414489447E+02
8.785860000E-03 5.466700000E+00 7.003830000E-03 1.411131067E+02
8.822400000E-03 5.457300000E+00 6.562020000E-03 1.405286543E+02
8.848420000E-03 5.449600000E+00 6.257080000E-03 1.401154104E+02
8.869280000E-03 5.443400000E+00 6.023720000E-03 1.397858676E+02
8.890130000E-03 5.437300000E+00 5.792490000E-03 1.394580282E+02
8.911210000E-03 5.431000000E+00 5.568180000E-03 1.391281319E+02
8.924950000E-03 5.427000000E+00 5.422010000E-03 1.389139435E+02
8.932780000E-03 5.424700000E+00 5.343070000E-03 1.387921789E+02
8.970870000E-03 5.413400000E+00 4.959320000E-03 1.382028722E+02
9.026320000E-03 5.397000000E+00 4.437510000E-03 1.373538718E+02
9.126270000E-03 5.367400000E+00 3.588320000E-03 1.358495859E+02
9.159090000E-03 5.357000000E+00 3.335570000E-03 1.353627926E+02
9.195590000E-03 5.343300000E+00 3.069820000E-03 1.348254979E+02
9.250090000E-03 5.319800000E+00 2.730280000E-03 1.340311283E+02
9.370410000E-03 5.243600000E+00 6.402290000E-03 1.323101124E+02
9.451570000E-03 5.165200000E+00 3.611860000E-02 1.311739743E+02
9.493370000E-03 5.124700000E+00 7.338790000E-02 1.305964057E+02
