# Data retrieved from https://www-nds.iaea.org/epdl97/za1to100.htm 03/01/2021
# Element, W  (Z = 74) 
# Atomic weight, g mol-1 = 183.85 
# Nominal density, g cm-3 =  1.93000E+1 
# Relativistic correction estimate f_rel(5CL)*,  e atom-1 =  0 
# Nuclear Thomson correction f_NT*, e atom-1 =  0 
#    E [keV]      f1 [e atom-1]      f2 [e atom-1]    Wavelength [nm] 
1.000000000E-03 6.967500000E+00 0.000000000E+00 1.239800000E+03
1.125000000E-03 6.960600000E+00 0.000000000E+00 1.102044444E+03
1.265630000E-03 6.952900000E+00 0.000000000E+00 9.795911917E+02
1.423830000E-03 6.944200000E+00 0.000000000E+00 8.707500193E+02
1.601810000E-03 6.934500000E+00 0.000000000E+00 7.739994132E+02
1.802030000E-03 6.923500000E+00 0.000000000E+00 6.880018646E+02
2.025350000E-03 6.909900000E+00 0.000000000E+00 6.121411114E+02
2.220750000E-03 6.889000000E+00 0.000000000E+00 5.582798604E+02
2.391720000E-03 6.870700000E+00 0.000000000E+00 5.183717158E+02
2.541320000E-03 6.854700000E+00 0.000000000E+00 4.878567044E+02
2.672230000E-03 6.840700000E+00 0.000000000E+00 4.639570696E+02
2.901300000E-03 6.816200000E+00 0.000000000E+00 4.273256816E+02
3.073110000E-03 6.795000000E+00 0.000000000E+00 4.034349568E+02
3.201970000E-03 6.776200000E+00 0.000000000E+00 3.871991305E+02
3.395260000E-03 6.748100000E+00 0.000000000E+00 3.651561294E+02
3.491900000E-03 6.734100000E+00 0.000000000E+00 3.550502592E+02
3.588540000E-03 6.720000000E+00 0.000000000E+00 3.454886946E+02
3.597380000E-03 6.718700000E+00 0.000000000E+00 3.446397100E+02
3.606210000E-03 6.717400000E+00 0.000000000E+00 3.437958411E+02
3.615040000E-03 6.716200000E+00 0.000000000E+00 3.429560945E+02
3.623870000E-03 6.714900000E+00 0.000000000E+00 3.421204403E+02
3.632710000E-03 6.713600000E+00 0.000000000E+00 3.412879090E+02
3.641540000E-03 6.712300000E+00 0.000000000E+00 3.404603547E+02
3.650370000E-03 6.711000000E+00 0.000000000E+00 3.396368039E+02
3.659200000E-03 6.709700000E+00 0.000000000E+00 3.388172278E+02
3.668040000E-03 6.708500000E+00 0.000000000E+00 3.380006761E+02
3.676870000E-03 6.707200000E+00 0.000000000E+00 3.371889678E+02
3.685700000E-03 6.705900000E+00 0.000000000E+00 3.363811488E+02
3.694540000E-03 6.704600000E+00 0.000000000E+00 3.355762828E+02
3.703370000E-03 6.703300000E+00 0.000000000E+00 3.347761633E+02
3.721030000E-03 6.700800000E+00 0.000000000E+00 3.331873164E+02
3.729870000E-03 6.699500000E+00 0.000000000E+00 3.323976439E+02
3.738700000E-03 6.698200000E+00 0.000000000E+00 3.316125926E+02
3.747530000E-03 6.696900000E+00 0.000000000E+00 3.308312408E+02
3.756360000E-03 6.695600000E+00 0.000000000E+00 3.300535625E+02
3.765200000E-03 6.694300000E+00 0.000000000E+00 3.292786572E+02
3.839170000E-03 6.683600000E+00 0.000000000E+00 3.229343843E+02
3.913130000E-03 6.672800000E+00 0.000000000E+00 3.168307723E+02
3.922760000E-03 6.671400000E+00 0.000000000E+00 3.160529831E+02
3.932400000E-03 6.670000000E+00 0.000000000E+00 3.152782016E+02
3.942030000E-03 6.668600000E+00 0.000000000E+00 3.145080073E+02
3.951660000E-03 6.667200000E+00 0.000000000E+00 3.137415668E+02
3.961290000E-03 6.665800000E+00 0.000000000E+00 3.129788528E+02
3.970920000E-03 6.664400000E+00 0.000000000E+00 3.122198382E+02
3.980550000E-03 6.663000000E+00 0.000000000E+00 3.114644961E+02
3.990190000E-03 6.661600000E+00 0.000000000E+00 3.107120212E+02
4.000000000E-03 6.660200000E+00 0.000000000E+00 3.099500000E+02
4.009450000E-03 6.658300000E+00 0.000000000E+00 3.092194690E+02
4.019080000E-03 6.656500000E+00 0.000000000E+00 3.084785573E+02
4.028710000E-03 6.654600000E+00 0.000000000E+00 3.077411876E+02
4.057610000E-03 6.649000000E+00 0.000000000E+00 3.055493258E+02
4.067240000E-03 6.647100000E+00 0.000000000E+00 3.048258770E+02
4.076870000E-03 6.645300000E+00 0.000000000E+00 3.041058459E+02
4.086500000E-03 6.643400000E+00 0.000000000E+00 3.033892084E+02
4.101590000E-03 6.640500000E+00 0.000000000E+00 3.022730210E+02
4.105770000E-03 6.639700000E+00 0.000000000E+00 3.019652830E+02
4.111420000E-03 6.638600000E+00 0.000000000E+00 3.015503159E+02
4.121250000E-03 6.636600000E+00 0.000000000E+00 3.008310585E+02
4.140910000E-03 6.632800000E+00 0.000000000E+00 2.994027883E+02
4.150740000E-03 6.630900000E+00 0.000000000E+00 2.986937269E+02
4.160570000E-03 6.629000000E+00 0.000000000E+00 2.979880161E+02
4.170400000E-03 6.627100000E+00 0.000000000E+00 2.972856321E+02
4.180220000E-03 6.625200000E+00 0.000000000E+00 2.965872610E+02
4.190050000E-03 6.623300000E+00 0.000000000E+00 2.958914571E+02
4.222050000E-03 6.617100000E+00 0.000000000E+00 2.936488199E+02
4.246060000E-03 6.612400000E+00 0.000000000E+00 2.919883374E+02
4.264060000E-03 6.608900000E+00 0.000000000E+00 2.907557586E+02
4.291060000E-03 6.603700000E+00 0.000000000E+00 2.889262793E+02
4.304560000E-03 6.601100000E+00 0.000000000E+00 2.880201461E+02
4.311310000E-03 6.599800000E+00 0.000000000E+00 2.875692075E+02
4.318060000E-03 6.598400000E+00 0.000000000E+00 2.871196787E+02
4.328680000E-03 6.596400000E+00 0.000000000E+00 2.864152582E+02
4.339310000E-03 6.594300000E+00 0.000000000E+00 2.857136273E+02
4.349940000E-03 6.592300000E+00 0.000000000E+00 2.850154255E+02
4.360570000E-03 6.590200000E+00 0.000000000E+00 2.843206278E+02
4.371200000E-03 6.588100000E+00 0.000000000E+00 2.836292094E+02
4.381830000E-03 6.586100000E+00 0.000000000E+00 2.829411456E+02
4.387140000E-03 6.585000000E+00 0.000000000E+00 2.825986862E+02
4.392450000E-03 6.584000000E+00 0.000000000E+00 2.822570547E+02
4.397770000E-03 6.583000000E+00 0.000000000E+00 2.819156072E+02
4.403080000E-03 6.581900000E+00 0.000000000E+00 2.815756243E+02
4.408400000E-03 6.580900000E+00 0.000000000E+00 2.812358225E+02
4.413710000E-03 6.579900000E+00 0.000000000E+00 2.808974763E+02
4.424340000E-03 6.577800000E+00 0.000000000E+00 2.802225869E+02
4.425670000E-03 6.577500000E+00 0.000000000E+00 2.801383745E+02
4.427990000E-03 6.577100000E+00 0.000000000E+00 2.799915989E+02
4.433220000E-03 6.576100000E+00 0.000000000E+00 2.796612846E+02
4.433660000E-03 6.576000000E+00 0.000000000E+00 2.796335308E+02
4.433990000E-03 6.575900000E+00 0.000000000E+00 2.796127190E+02
4.434230000E-03 6.575900000E+00 0.000000000E+00 2.795975852E+02
4.434600000E-03 6.575800000E+00 0.000000000E+00 2.795742570E+02
4.434780000E-03 6.575800000E+00 0.000000000E+00 2.795629095E+02
4.435160000E-03 6.575700000E+00 0.000000000E+00 2.795389569E+02
4.435920000E-03 6.575600000E+00 0.000000000E+00 2.794910639E+02
4.437350000E-03 6.575300000E+00 0.000000000E+00 2.794009938E+02
4.439840000E-03 6.574800000E+00 0.000000000E+00 2.792442971E+02
4.447320000E-03 6.573300000E+00 0.000000000E+00 2.787746328E+02
4.450060000E-03 6.572800000E+00 0.000000000E+00 2.786029851E+02
4.454170000E-03 6.572000000E+00 0.000000000E+00 2.783459096E+02
4.458270000E-03 6.571200000E+00 0.000000000E+00 2.780899317E+02
4.463740000E-03 6.570200000E+00 0.000000000E+00 2.777491521E+02
4.469220000E-03 6.569100000E+00 0.000000000E+00 2.774085858E+02
4.473350000E-03 6.568300000E+00 0.000000000E+00 2.771524696E+02
4.477480000E-03 6.567500000E+00 0.000000000E+00 2.768968259E+02
4.482800000E-03 6.566500000E+00 0.000000000E+00 2.765682163E+02
4.488110000E-03 6.565400000E+00 0.000000000E+00 2.762410012E+02
4.498740000E-03 6.563400000E+00 0.000000000E+00 2.755882758E+02
4.501400000E-03 6.562700000E+00 0.000000000E+00 2.754254232E+02
4.509370000E-03 6.560600000E+00 0.000000000E+00 2.749386278E+02
4.512020000E-03 6.559900000E+00 0.000000000E+00 2.747771508E+02
4.516670000E-03 6.558700000E+00 0.000000000E+00 2.744942624E+02
4.530620000E-03 6.555000000E+00 0.000000000E+00 2.736490811E+02
4.531690000E-03 6.554700000E+00 0.000000000E+00 2.735844685E+02
4.533290000E-03 6.554300000E+00 0.000000000E+00 2.734879083E+02
4.534900000E-03 6.553900000E+00 0.000000000E+00 2.733908135E+02
4.540370000E-03 6.552400000E+00 0.000000000E+00 2.730614465E+02
4.543110000E-03 6.551700000E+00 0.000000000E+00 2.728967601E+02
4.544480000E-03 6.551300000E+00 0.000000000E+00 2.728144914E+02
4.554050000E-03 6.548800000E+00 0.000000000E+00 2.722411919E+02
4.556790000E-03 6.548100000E+00 0.000000000E+00 2.720774931E+02
4.567740000E-03 6.545200000E+00 0.000000000E+00 2.714252563E+02
4.578680000E-03 6.542200000E+00 0.000000000E+00 2.707767304E+02
4.584160000E-03 6.540800000E+00 0.000000000E+00 2.704530383E+02
4.589630000E-03 6.539300000E+00 0.000000000E+00 2.701307077E+02
4.595100000E-03 6.537900000E+00 0.000000000E+00 2.698091445E+02
4.606050000E-03 6.535000000E+00 0.000000000E+00 2.691677251E+02
4.611520000E-03 6.533500000E+00 0.000000000E+00 2.688484491E+02
4.622470000E-03 6.530600000E+00 0.000000000E+00 2.682115839E+02
4.633420000E-03 6.527700000E+00 0.000000000E+00 2.675777288E+02
4.644360000E-03 6.524800000E+00 0.000000000E+00 2.669474373E+02
4.649840000E-03 6.523400000E+00 0.000000000E+00 2.666328304E+02
4.660780000E-03 6.520500000E+00 0.000000000E+00 2.660069774E+02
4.663520000E-03 6.519700000E+00 0.000000000E+00 2.658506879E+02
4.664890000E-03 6.519400000E+00 0.000000000E+00 2.657726120E+02
4.666260000E-03 6.519000000E+00 0.000000000E+00 2.656945820E+02
4.666980000E-03 6.518800000E+00 0.000000000E+00 2.656535918E+02
4.668430000E-03 6.518400000E+00 0.000000000E+00 2.655710806E+02
4.670580000E-03 6.517900000E+00 0.000000000E+00 2.654488308E+02
4.671290000E-03 6.517700000E+00 0.000000000E+00 2.654084846E+02
4.672700000E-03 6.517300000E+00 0.000000000E+00 2.653283969E+02
4.762470000E-03 6.493500000E+00 0.000000000E+00 2.603270992E+02
4.784920000E-03 6.487500000E+00 0.000000000E+00 2.591056904E+02
4.801750000E-03 6.483100000E+00 0.000000000E+00 2.581975321E+02
4.814370000E-03 6.479700000E+00 0.000000000E+00 2.575207140E+02
4.823840000E-03 6.477200000E+00 0.000000000E+00 2.570151580E+02
4.838050000E-03 6.473500000E+00 0.000000000E+00 2.562602702E+02
4.845150000E-03 6.471600000E+00 0.000000000E+00 2.558847507E+02
4.852250000E-03 6.469700000E+00 0.000000000E+00 2.555103303E+02
4.858220000E-03 6.468100000E+00 0.000000000E+00 2.551963476E+02
4.876130000E-03 6.463300000E+00 0.000000000E+00 2.542590128E+02
4.888080000E-03 6.460200000E+00 0.000000000E+00 2.536374200E+02
4.900020000E-03 6.457000000E+00 0.000000000E+00 2.530193754E+02
4.911960000E-03 6.453800000E+00 0.000000000E+00 2.524043355E+02
4.917940000E-03 6.452300000E+00 0.000000000E+00 2.520974229E+02
4.923910000E-03 6.450700000E+00 0.000000000E+00 2.517917671E+02
4.929880000E-03 6.449100000E+00 0.000000000E+00 2.514868516E+02
4.935850000E-03 6.447500000E+00 0.000000000E+00 2.511826737E+02
4.941820000E-03 6.445900000E+00 0.000000000E+00 2.508792307E+02
4.947790000E-03 6.444300000E+00 0.000000000E+00 2.505765200E+02
4.956750000E-03 6.442000000E+00 0.000000000E+00 2.501235689E+02
4.962720000E-03 6.440400000E+00 0.000000000E+00 2.498226779E+02
4.967200000E-03 6.439200000E+00 0.000000000E+00 2.495973587E+02
4.969440000E-03 6.438600000E+00 0.000000000E+00 2.494848514E+02
4.970000000E-03 6.438400000E+00 0.000000000E+00 2.494567404E+02
4.970420000E-03 6.438300000E+00 0.000000000E+00 2.494356614E+02
4.970740000E-03 6.438300000E+00 0.000000000E+00 2.494196035E+02
4.970790000E-03 6.438200000E+00 0.000000000E+00 2.494170947E+02
4.971020000E-03 6.438200000E+00 0.000000000E+00 2.494055546E+02
4.971350000E-03 6.438100000E+00 0.000000000E+00 2.493889990E+02
4.971510000E-03 6.438000000E+00 0.000000000E+00 2.493809728E+02
4.971890000E-03 6.437900000E+00 0.000000000E+00 2.493619127E+02
4.972310000E-03 6.437800000E+00 0.000000000E+00 2.493408496E+02
4.973110000E-03 6.437600000E+00 0.000000000E+00 2.493007394E+02
4.985220000E-03 6.434400000E+00 0.000000000E+00 2.486951428E+02
4.988280000E-03 6.433500000E+00 0.000000000E+00 2.485425838E+02
4.997490000E-03 6.430700000E+00 0.000000000E+00 2.480845384E+02
5.001720000E-03 6.429400000E+00 0.000000000E+00 2.478747311E+02
5.009140000E-03 6.427200000E+00 0.000000000E+00 2.475075562E+02
5.020270000E-03 6.423900000E+00 0.000000000E+00 2.469588289E+02
5.025830000E-03 6.422200000E+00 0.000000000E+00 2.466856221E+02
5.031400000E-03 6.420500000E+00 0.000000000E+00 2.464125293E+02
5.043340000E-03 6.416900000E+00 0.000000000E+00 2.458291529E+02
5.055280000E-03 6.413400000E+00 0.000000000E+00 2.452485322E+02
5.067230000E-03 6.409800000E+00 0.000000000E+00 2.446701650E+02
5.083380000E-03 6.404900000E+00 0.000000000E+00 2.438928430E+02
5.091110000E-03 6.402600000E+00 0.000000000E+00 2.435225324E+02
5.095650000E-03 6.401200000E+00 0.000000000E+00 2.433055646E+02
5.107920000E-03 6.397600000E+00 0.000000000E+00 2.427211076E+02
5.120190000E-03 6.393900000E+00 0.000000000E+00 2.421394519E+02
5.132460000E-03 6.390200000E+00 0.000000000E+00 2.415605772E+02
5.144730000E-03 6.386500000E+00 0.000000000E+00 2.409844637E+02
5.169270000E-03 6.379100000E+00 0.000000000E+00 2.398404417E+02
5.181540000E-03 6.375500000E+00 0.000000000E+00 2.392724943E+02
5.193810000E-03 6.371800000E+00 0.000000000E+00 2.387072303E+02
5.206080000E-03 6.368100000E+00 0.000000000E+00 2.381446309E+02
5.218350000E-03 6.364400000E+00 0.000000000E+00 2.375846771E+02
5.230620000E-03 6.360700000E+00 0.000000000E+00 2.370273505E+02
5.250420000E-03 6.354800000E+00 0.000000000E+00 2.361334903E+02
5.280110000E-03 6.345900000E+00 0.000000000E+00 2.348057143E+02
5.309810000E-03 6.336900000E+00 0.000000000E+00 2.334923472E+02
5.322880000E-03 6.333000000E+00 0.000000000E+00 2.329190213E+02
5.335940000E-03 6.329100000E+00 0.000000000E+00 2.323489395E+02
5.349010000E-03 6.325200000E+00 0.000000000E+00 2.317812081E+02
5.362080000E-03 6.321200000E+00 0.000000000E+00 2.312162444E+02
5.375150000E-03 6.317300000E+00 0.000000000E+00 2.306540283E+02
5.388220000E-03 6.313400000E+00 0.000000000E+00 2.300945396E+02
5.401290000E-03 6.309500000E+00 0.000000000E+00 2.295377586E+02
5.414360000E-03 6.305500000E+00 0.000000000E+00 2.289836657E+02
5.427430000E-03 6.301600000E+00 0.000000000E+00 2.284322414E+02
5.440500000E-03 6.297700000E+00 0.000000000E+00 2.278834666E+02
5.453570000E-03 6.293800000E+00 0.000000000E+00 2.273373222E+02
5.466640000E-03 6.289800000E+00 0.000000000E+00 2.267937892E+02
5.479710000E-03 6.285900000E+00 0.000000000E+00 2.262528491E+02
5.505850000E-03 6.278100000E+00 0.000000000E+00 2.251786736E+02
5.518920000E-03 6.274200000E+00 0.000000000E+00 2.246454016E+02
5.531990000E-03 6.270200000E+00 0.000000000E+00 2.241146495E+02
5.545060000E-03 6.266300000E+00 0.000000000E+00 2.235863994E+02
5.558120000E-03 6.262400000E+00 0.000000000E+00 2.230610350E+02
5.571190000E-03 6.258500000E+00 0.000000000E+00 2.225377343E+02
5.630050000E-03 6.240800000E+00 0.000000000E+00 2.202111882E+02
5.688900000E-03 6.223100000E+00 0.000000000E+00 2.179331681E+02
5.702910000E-03 6.218600000E+00 0.000000000E+00 2.173977846E+02
5.716910000E-03 6.213900000E+00 0.000000000E+00 2.168654046E+02
5.730910000E-03 6.209100000E+00 0.000000000E+00 2.163356256E+02
5.744910000E-03 6.204300000E+00 0.000000000E+00 2.158084287E+02
5.758920000E-03 6.199500000E+00 0.000000000E+00 2.152834212E+02
5.801210000E-03 6.185100000E+00 0.000000000E+00 2.137140355E+02
5.830130000E-03 6.172800000E+00 0.000000000E+00 2.126539202E+02
5.844370000E-03 6.166500000E+00 0.000000000E+00 2.121357820E+02
5.858620000E-03 6.160100000E+00 0.000000000E+00 2.116198013E+02
5.872860000E-03 6.153700000E+00 0.000000000E+00 2.111066840E+02
5.898940000E-03 6.142100000E+00 0.000000000E+00 2.101733532E+02
5.915920000E-03 6.134500000E+00 0.000000000E+00 2.095701091E+02
5.930300000E-03 6.128100000E+00 0.000000000E+00 2.090619362E+02
5.944690000E-03 6.121700000E+00 0.000000000E+00 2.085558709E+02
5.959070000E-03 6.115300000E+00 0.000000000E+00 2.080525988E+02
5.973460000E-03 6.108800000E+00 0.000000000E+00 2.075514024E+02
5.991380000E-03 6.100800000E+00 0.000000000E+00 2.069306237E+02
6.015390000E-03 6.090100000E+00 0.000000000E+00 2.061046748E+02
6.029670000E-03 6.083700000E+00 0.000000000E+00 2.056165594E+02
6.043950000E-03 6.077400000E+00 0.000000000E+00 2.051307506E+02
6.058230000E-03 6.071000000E+00 0.000000000E+00 2.046472319E+02
6.076920000E-03 6.062700000E+00 0.000000000E+00 2.040178248E+02
6.086790000E-03 6.058200000E+00 0.000000000E+00 2.036870009E+02
6.102910000E-03 6.051100000E+00 0.000000000E+00 2.031489896E+02
6.116390000E-03 6.045000000E+00 0.000000000E+00 2.027012666E+02
6.125810000E-03 6.040800000E+00 0.000000000E+00 2.023895615E+02
6.136260000E-03 6.036200000E+00 0.000000000E+00 2.020448938E+02
6.146710000E-03 6.031500000E+00 0.000000000E+00 2.017013980E+02
6.155970000E-03 6.027400000E+00 0.000000000E+00 2.013979925E+02
6.161560000E-03 6.024900000E+00 0.000000000E+00 2.012152767E+02
6.171040000E-03 6.020600000E+00 0.000000000E+00 2.009061682E+02
6.174810000E-03 6.019000000E+00 0.000000000E+00 2.007835059E+02
6.186120000E-03 6.013900000E+00 0.000000000E+00 2.004164161E+02
6.188140000E-03 6.013000000E+00 0.000000000E+00 2.003509940E+02
6.191660000E-03 6.011400000E+00 0.000000000E+00 2.002370931E+02
6.194310000E-03 6.010300000E+00 0.000000000E+00 2.001514293E+02
6.204370000E-03 6.005800000E+00 0.000000000E+00 1.998268962E+02
6.208300000E-03 6.004000000E+00 0.000000000E+00 1.997004011E+02
6.211760000E-03 6.002500000E+00 0.000000000E+00 1.995891664E+02
6.214890000E-03 6.001100000E+00 0.000000000E+00 1.994886474E+02
6.217630000E-03 5.999800000E+00 0.000000000E+00 1.994007363E+02
6.220030000E-03 5.998800000E+00 0.000000000E+00 1.993237975E+02
6.224230000E-03 5.996900000E+00 0.000000000E+00 1.991892973E+02
6.227380000E-03 5.995500000E+00 0.000000000E+00 1.990885412E+02
6.232110000E-03 5.993400000E+00 0.000000000E+00 1.989374385E+02
6.234470000E-03 5.992300000E+00 0.000000000E+00 1.988621326E+02
6.236830000E-03 5.991300000E+00 0.000000000E+00 1.987868837E+02
6.243570000E-03 5.988300000E+00 0.000000000E+00 1.985722912E+02
6.246950000E-03 5.986800000E+00 0.000000000E+00 1.984648508E+02
6.256370000E-03 5.982600000E+00 0.000000000E+00 1.981660292E+02
6.262420000E-03 5.979900000E+00 0.000000000E+00 1.979745849E+02
6.277460000E-03 5.973100000E+00 0.000000000E+00 1.975002628E+02
6.292510000E-03 5.966400000E+00 0.000000000E+00 1.970278951E+02
6.309520000E-03 5.958800000E+00 0.000000000E+00 1.964967224E+02
6.320140000E-03 5.954100000E+00 0.000000000E+00 1.961665406E+02
6.336060000E-03 5.947000000E+00 0.000000000E+00 1.956736521E+02
6.351980000E-03 5.939900000E+00 0.000000000E+00 1.951832342E+02
6.367730000E-03 5.932800000E+00 0.000000000E+00 1.947004663E+02
6.382770000E-03 5.926100000E+00 0.000000000E+00 1.942416850E+02
6.397210000E-03 5.919700000E+00 0.000000000E+00 1.938032361E+02
6.412860000E-03 5.912700000E+00 0.000000000E+00 1.933302770E+02
6.417490000E-03 5.910600000E+00 0.000000000E+00 1.931907958E+02
6.427370000E-03 5.906200000E+00 0.000000000E+00 1.928938275E+02
6.439520000E-03 5.900800000E+00 0.000000000E+00 1.925298780E+02
6.444100000E-03 5.898800000E+00 0.000000000E+00 1.923930417E+02
6.455290000E-03 5.893800000E+00 0.000000000E+00 1.920595357E+02
6.460200000E-03 5.891600000E+00 0.000000000E+00 1.919135630E+02
6.471070000E-03 5.884800000E+00 0.000000000E+00 1.915911897E+02
6.475670000E-03 5.881900000E+00 0.000000000E+00 1.914550927E+02
6.491450000E-03 5.872000000E+00 0.000000000E+00 1.909896864E+02
6.512800000E-03 5.858500000E+00 0.000000000E+00 1.903635917E+02
6.534160000E-03 5.845000000E+00 0.000000000E+00 1.897412980E+02
6.554590000E-03 5.831400000E+00 0.000000000E+00 1.891498934E+02
6.570370000E-03 5.820300000E+00 0.000000000E+00 1.886956138E+02
6.586150000E-03 5.809300000E+00 0.000000000E+00 1.882435110E+02
6.601940000E-03 5.798200000E+00 0.000000000E+00 1.877932850E+02
6.625610000E-03 5.781600000E+00 0.000000000E+00 1.871223933E+02
6.649290000E-03 5.765100000E+00 0.000000000E+00 1.864559976E+02
6.660500000E-03 5.757200000E+00 0.000000000E+00 1.861421815E+02
6.666950000E-03 5.752700000E+00 0.000000000E+00 1.859620966E+02
