# Data retrieved from https://www-nds.iaea.org/epdl97/za1to100.htm 03/01/2021
# Element, Y  (Z = 39) 
# Atomic weight, g mol-1 = 88.905 
# Nominal density, g cm-3 =  4.46900E+0 
# Relativistic correction estimate f_rel(5CL)*,  e atom-1 =  0 
# Nuclear Thomson correction f_NT*, e atom-1 =  0 
#    E [keV]      f1 [e atom-1]      f2 [e atom-1]    Wavelength [nm] 
1.000000000E-03 7.710400000E+00 0.000000000E+00 1.239800000E+03
1.118230000E-03 7.706500000E+00 0.000000000E+00 1.108716454E+03
1.221680000E-03 7.703000000E+00 0.000000000E+00 1.014832035E+03
1.402730000E-03 7.697000000E+00 0.000000000E+00 8.838479251E+02
1.538510000E-03 7.692500000E+00 0.000000000E+00 8.058446159E+02
1.640350000E-03 7.689100000E+00 0.000000000E+00 7.558143079E+02
1.793100000E-03 7.684000000E+00 0.000000000E+00 6.914282527E+02
1.945860000E-03 7.678900000E+00 0.000000000E+00 6.371475851E+02
1.950640000E-03 7.678700000E+00 0.000000000E+00 6.355862691E+02
1.955430000E-03 7.678600000E+00 0.000000000E+00 6.340293439E+02
1.960220000E-03 7.678400000E+00 0.000000000E+00 6.324800278E+02
1.965010000E-03 7.678300000E+00 0.000000000E+00 6.309382649E+02
1.969800000E-03 7.678100000E+00 0.000000000E+00 6.294040004E+02
1.974590000E-03 7.677900000E+00 0.000000000E+00 6.278771796E+02
1.979380000E-03 7.677800000E+00 0.000000000E+00 6.263577484E+02
1.984170000E-03 7.677600000E+00 0.000000000E+00 6.248456533E+02
1.988960000E-03 7.677500000E+00 0.000000000E+00 6.233408414E+02
1.993750000E-03 7.677300000E+00 0.000000000E+00 6.218432602E+02
1.998540000E-03 7.677100000E+00 0.000000000E+00 6.203528576E+02
2.003330000E-03 7.676900000E+00 0.000000000E+00 6.188695821E+02
2.008120000E-03 7.676600000E+00 0.000000000E+00 6.173933829E+02
2.017700000E-03 7.675900000E+00 0.000000000E+00 6.144620112E+02
2.022490000E-03 7.675600000E+00 0.000000000E+00 6.130067392E+02
2.027280000E-03 7.675300000E+00 0.000000000E+00 6.115583442E+02
2.032070000E-03 7.675000000E+00 0.000000000E+00 6.101167775E+02
2.038770000E-03 7.674500000E+00 0.000000000E+00 6.081117537E+02
2.041640000E-03 7.674400000E+00 0.000000000E+00 6.072569111E+02
2.053650000E-03 7.673600000E+00 0.000000000E+00 6.037055974E+02
2.058600000E-03 7.673200000E+00 0.000000000E+00 6.022539590E+02
2.062760000E-03 7.673000000E+00 0.000000000E+00 6.010393841E+02
2.063560000E-03 7.672900000E+00 0.000000000E+00 6.008063735E+02
2.068520000E-03 7.672600000E+00 0.000000000E+00 5.993657301E+02
2.073470000E-03 7.672200000E+00 0.000000000E+00 5.979348628E+02
2.078430000E-03 7.671900000E+00 0.000000000E+00 5.965079411E+02
2.083390000E-03 7.671600000E+00 0.000000000E+00 5.950878136E+02
2.088350000E-03 7.671300000E+00 0.000000000E+00 5.936744320E+02
2.093300000E-03 7.670900000E+00 0.000000000E+00 5.922705776E+02
2.103380000E-03 7.670300000E+00 0.000000000E+00 5.894322471E+02
2.108450000E-03 7.669900000E+00 0.000000000E+00 5.880148925E+02
2.113530000E-03 7.669600000E+00 0.000000000E+00 5.866015623E+02
2.118610000E-03 7.669300000E+00 0.000000000E+00 5.851950099E+02
2.123680000E-03 7.668900000E+00 0.000000000E+00 5.837979357E+02
2.138920000E-03 7.667900000E+00 0.000000000E+00 5.796383221E+02
2.143990000E-03 7.667600000E+00 0.000000000E+00 5.782676225E+02
2.149070000E-03 7.667300000E+00 0.000000000E+00 5.769007059E+02
2.154150000E-03 7.666900000E+00 0.000000000E+00 5.755402363E+02
2.162360000E-03 7.666400000E+00 0.000000000E+00 5.733550380E+02
2.164300000E-03 7.666300000E+00 0.000000000E+00 5.728411034E+02
2.172850000E-03 7.665700000E+00 0.000000000E+00 5.705870171E+02
2.178100000E-03 7.665300000E+00 0.000000000E+00 5.692116983E+02
2.183340000E-03 7.665000000E+00 0.000000000E+00 5.678455944E+02
2.188580000E-03 7.664700000E+00 0.000000000E+00 5.664860320E+02
2.193830000E-03 7.664300000E+00 0.000000000E+00 5.651303884E+02
2.199070000E-03 7.664000000E+00 0.000000000E+00 5.637837813E+02
2.209560000E-03 7.663300000E+00 0.000000000E+00 5.611071888E+02
2.214810000E-03 7.662900000E+00 0.000000000E+00 5.597771366E+02
2.220050000E-03 7.662600000E+00 0.000000000E+00 5.584558906E+02
2.225300000E-03 7.662200000E+00 0.000000000E+00 5.571383634E+02
2.230540000E-03 7.661900000E+00 0.000000000E+00 5.558295301E+02
2.235790000E-03 7.661500000E+00 0.000000000E+00 5.545243516E+02
2.302180000E-03 7.657200000E+00 0.000000000E+00 5.385330426E+02
2.351980000E-03 7.653900000E+00 0.000000000E+00 5.271303327E+02
2.389320000E-03 7.651400000E+00 0.000000000E+00 5.188924045E+02
2.445340000E-03 7.647700000E+00 0.000000000E+00 5.070051608E+02
2.473350000E-03 7.645900000E+00 0.000000000E+00 5.012634686E+02
2.487360000E-03 7.644900000E+00 0.000000000E+00 4.984401132E+02
2.494360000E-03 7.644500000E+00 0.000000000E+00 4.970413252E+02
2.501360000E-03 7.644000000E+00 0.000000000E+00 4.956503662E+02
2.507520000E-03 7.643600000E+00 0.000000000E+00 4.944327463E+02
2.513680000E-03 7.643200000E+00 0.000000000E+00 4.932210942E+02
2.519830000E-03 7.642800000E+00 0.000000000E+00 4.920173186E+02
2.525990000E-03 7.642400000E+00 0.000000000E+00 4.908174617E+02
2.532150000E-03 7.642000000E+00 0.000000000E+00 4.896234425E+02
2.538300000E-03 7.641600000E+00 0.000000000E+00 4.884371430E+02
2.544460000E-03 7.641200000E+00 0.000000000E+00 4.872546631E+02
2.550620000E-03 7.640800000E+00 0.000000000E+00 4.860778948E+02
2.556770000E-03 7.640300000E+00 0.000000000E+00 4.849086934E+02
2.562930000E-03 7.639900000E+00 0.000000000E+00 4.837432158E+02
2.569500000E-03 7.639500000E+00 0.000000000E+00 4.825063242E+02
2.575820000E-03 7.639100000E+00 0.000000000E+00 4.813224527E+02
2.578980000E-03 7.638900000E+00 0.000000000E+00 4.807326928E+02
2.583730000E-03 7.638600000E+00 0.000000000E+00 4.798489006E+02
2.586100000E-03 7.638400000E+00 0.000000000E+00 4.794091489E+02
2.588470000E-03 7.638300000E+00 0.000000000E+00 4.789702025E+02
2.591630000E-03 7.638000000E+00 0.000000000E+00 4.783861894E+02
2.594790000E-03 7.637800000E+00 0.000000000E+00 4.778035987E+02
2.599870000E-03 7.637500000E+00 0.000000000E+00 4.768699973E+02
2.606030000E-03 7.637100000E+00 0.000000000E+00 4.757427965E+02
2.612180000E-03 7.636700000E+00 0.000000000E+00 4.746227289E+02
2.616140000E-03 7.636400000E+00 0.000000000E+00 4.739043018E+02
2.620090000E-03 7.636200000E+00 0.000000000E+00 4.731898523E+02
2.624500000E-03 7.635900000E+00 0.000000000E+00 4.723947419E+02
2.626420000E-03 7.635700000E+00 0.000000000E+00 4.720494057E+02
2.632740000E-03 7.635300000E+00 0.000000000E+00 4.709162318E+02
2.639060000E-03 7.634900000E+00 0.000000000E+00 4.697884853E+02
2.645390000E-03 7.634500000E+00 0.000000000E+00 4.686643557E+02
2.648550000E-03 7.634300000E+00 0.000000000E+00 4.681051896E+02
2.651710000E-03 7.634100000E+00 0.000000000E+00 4.675473562E+02
2.654880000E-03 7.633900000E+00 0.000000000E+00 4.669890918E+02
2.658040000E-03 7.633700000E+00 0.000000000E+00 4.664339137E+02
2.661200000E-03 7.633500000E+00 0.000000000E+00 4.658800541E+02
2.664360000E-03 7.633200000E+00 0.000000000E+00 4.653275083E+02
2.670690000E-03 7.632800000E+00 0.000000000E+00 4.642246011E+02
2.677010000E-03 7.632400000E+00 0.000000000E+00 4.631286398E+02
2.683340000E-03 7.632000000E+00 0.000000000E+00 4.620361192E+02
2.689660000E-03 7.631600000E+00 0.000000000E+00 4.609504547E+02
2.695980000E-03 7.631200000E+00 0.000000000E+00 4.598698803E+02
2.707350000E-03 7.630400000E+00 0.000000000E+00 4.579385746E+02
2.729360000E-03 7.629000000E+00 0.000000000E+00 4.542456840E+02
2.894450000E-03 7.618100000E+00 0.000000000E+00 4.283369898E+02
2.935720000E-03 7.615300000E+00 0.000000000E+00 4.223154797E+02
3.000000000E-03 7.611100000E+00 0.000000000E+00 4.132666667E+02
3.028580000E-03 7.608300000E+00 0.000000000E+00 4.093667659E+02
3.059530000E-03 7.605400000E+00 0.000000000E+00 4.052256392E+02
3.067060000E-03 7.604700000E+00 0.000000000E+00 4.042307617E+02
3.074590000E-03 7.603900000E+00 0.000000000E+00 4.032407573E+02
3.082130000E-03 7.603200000E+00 0.000000000E+00 4.022542852E+02
3.089660000E-03 7.602500000E+00 0.000000000E+00 4.012739266E+02
3.097190000E-03 7.601800000E+00 0.000000000E+00 4.002983349E+02
3.104720000E-03 7.601000000E+00 0.000000000E+00 3.993274756E+02
3.112250000E-03 7.600300000E+00 0.000000000E+00 3.983613142E+02
3.119780000E-03 7.599600000E+00 0.000000000E+00 3.973998167E+02
3.127310000E-03 7.598900000E+00 0.000000000E+00 3.964429494E+02
3.134840000E-03 7.598200000E+00 0.000000000E+00 3.954906790E+02
3.142370000E-03 7.597400000E+00 0.000000000E+00 3.945429723E+02
3.149900000E-03 7.596700000E+00 0.000000000E+00 3.935997968E+02
3.157430000E-03 7.596000000E+00 0.000000000E+00 3.926611200E+02
3.164960000E-03 7.595300000E+00 0.000000000E+00 3.917269097E+02
3.172490000E-03 7.594500000E+00 0.000000000E+00 3.907971341E+02
3.176440000E-03 7.594200000E+00 0.000000000E+00 3.903111660E+02
3.192070000E-03 7.592700000E+00 0.000000000E+00 3.884000038E+02
3.199890000E-03 7.591900000E+00 0.000000000E+00 3.874508186E+02
3.207710000E-03 7.591200000E+00 0.000000000E+00 3.865062615E+02
3.215530000E-03 7.590400000E+00 0.000000000E+00 3.855662986E+02
3.219440000E-03 7.590000000E+00 0.000000000E+00 3.850980295E+02
3.223350000E-03 7.589700000E+00 0.000000000E+00 3.846308964E+02
3.227260000E-03 7.589300000E+00 0.000000000E+00 3.841648953E+02
3.231160000E-03 7.588900000E+00 0.000000000E+00 3.837012095E+02
3.235070000E-03 7.588500000E+00 0.000000000E+00 3.832374570E+02
3.238980000E-03 7.588200000E+00 0.000000000E+00 3.827748242E+02
3.244850000E-03 7.587600000E+00 0.000000000E+00 3.820823767E+02
3.248760000E-03 7.587200000E+00 0.000000000E+00 3.816225267E+02
3.253150000E-03 7.586800000E+00 0.000000000E+00 3.811075419E+02
3.253890000E-03 7.586700000E+00 0.000000000E+00 3.810208704E+02
3.255110000E-03 7.586600000E+00 0.000000000E+00 3.808780656E+02
3.262440000E-03 7.585900000E+00 0.000000000E+00 3.800223146E+02
3.263420000E-03 7.585800000E+00 0.000000000E+00 3.799081945E+02
3.266840000E-03 7.585500000E+00 0.000000000E+00 3.795104750E+02
3.272210000E-03 7.585000000E+00 0.000000000E+00 3.788876631E+02
3.278080000E-03 7.584400000E+00 0.000000000E+00 3.782091956E+02
3.281980000E-03 7.584000000E+00 0.000000000E+00 3.777597670E+02
3.285890000E-03 7.583700000E+00 0.000000000E+00 3.773102569E+02
3.289800000E-03 7.583300000E+00 0.000000000E+00 3.768618153E+02
3.293710000E-03 7.582900000E+00 0.000000000E+00 3.764144384E+02
3.301530000E-03 7.582200000E+00 0.000000000E+00 3.755228636E+02
3.309350000E-03 7.581400000E+00 0.000000000E+00 3.746355024E+02
3.317170000E-03 7.580700000E+00 0.000000000E+00 3.737523250E+02
3.328890000E-03 7.579500000E+00 0.000000000E+00 3.724364578E+02
3.332800000E-03 7.579200000E+00 0.000000000E+00 3.719995199E+02
3.335010000E-03 7.578900000E+00 0.000000000E+00 3.717530082E+02
3.339380000E-03 7.578500000E+00 0.000000000E+00 3.712665225E+02
3.348000000E-03 7.577700000E+00 0.000000000E+00 3.703106332E+02
3.356340000E-03 7.576900000E+00 0.000000000E+00 3.693904670E+02
3.364430000E-03 7.576100000E+00 0.000000000E+00 3.685022426E+02
3.372260000E-03 7.575400000E+00 0.000000000E+00 3.676466227E+02
3.379850000E-03 7.574600000E+00 0.000000000E+00 3.668210128E+02
3.387200000E-03 7.573900000E+00 0.000000000E+00 3.660250354E+02
3.394320000E-03 7.573300000E+00 0.000000000E+00 3.652572533E+02
3.504680000E-03 7.562300000E+00 0.000000000E+00 3.537555497E+02
3.532270000E-03 7.558900000E+00 0.000000000E+00 3.509924213E+02
3.552960000E-03 7.556400000E+00 0.000000000E+00 3.489484824E+02
3.568480000E-03 7.554500000E+00 0.000000000E+00 3.474308389E+02
3.580120000E-03 7.553000000E+00 0.000000000E+00 3.463012413E+02
3.588850000E-03 7.552000000E+00 0.000000000E+00 3.454588517E+02
3.601950000E-03 7.550300000E+00 0.000000000E+00 3.442024459E+02
3.608490000E-03 7.549500000E+00 0.000000000E+00 3.435786160E+02
3.611770000E-03 7.549100000E+00 0.000000000E+00 3.432665978E+02
3.615040000E-03 7.548700000E+00 0.000000000E+00 3.429560945E+02
3.621610000E-03 7.547900000E+00 0.000000000E+00 3.423339344E+02
3.628180000E-03 7.547100000E+00 0.000000000E+00 3.417140274E+02
3.632840000E-03 7.546500000E+00 0.000000000E+00 3.412756961E+02
3.641730000E-03 7.545400000E+00 0.000000000E+00 3.404425918E+02
3.650630000E-03 7.544400000E+00 0.000000000E+00 3.396126148E+02
3.659530000E-03 7.543300000E+00 0.000000000E+00 3.387866748E+02
3.663660000E-03 7.542700000E+00 0.000000000E+00 3.384047646E+02
3.669840000E-03 7.542000000E+00 0.000000000E+00 3.378348920E+02
3.676030000E-03 7.541200000E+00 0.000000000E+00 3.372660180E+02
3.681130000E-03 7.540600000E+00 0.000000000E+00 3.367987547E+02
3.683680000E-03 7.540300000E+00 0.000000000E+00 3.365656083E+02
3.686220000E-03 7.540000000E+00 0.000000000E+00 3.363336968E+02
3.690670000E-03 7.539400000E+00 0.000000000E+00 3.359281648E+02
3.692900000E-03 7.539100000E+00 0.000000000E+00 3.357253107E+02
3.696230000E-03 7.538700000E+00 0.000000000E+00 3.354228498E+02
3.700130000E-03 7.538300000E+00 0.000000000E+00 3.350693084E+02
3.702070000E-03 7.538000000E+00 0.000000000E+00 3.348937216E+02
3.702560000E-03 7.538000000E+00 0.000000000E+00 3.348494015E+02
3.702930000E-03 7.537900000E+00 0.000000000E+00 3.348159431E+02
3.703060000E-03 7.537900000E+00 0.000000000E+00 3.348041890E+02
3.703300000E-03 7.537900000E+00 0.000000000E+00 3.347824913E+02
3.703660000E-03 7.537800000E+00 0.000000000E+00 3.347499500E+02
3.703840000E-03 7.537800000E+00 0.000000000E+00 3.347336818E+02
3.704300000E-03 7.537700000E+00 0.000000000E+00 3.346921146E+02
3.712920000E-03 7.536700000E+00 0.000000000E+00 3.339150857E+02
3.715140000E-03 7.536400000E+00 0.000000000E+00 3.337155531E+02
3.721820000E-03 7.535600000E+00 0.000000000E+00 3.331165935E+02
3.725460000E-03 7.535100000E+00 0.000000000E+00 3.327911184E+02
3.730940000E-03 7.534500000E+00 0.000000000E+00 3.323023152E+02
3.736410000E-03 7.533800000E+00 0.000000000E+00 3.318158339E+02
3.742460000E-03 7.533100000E+00 0.000000000E+00 3.312794258E+02
3.748510000E-03 7.532300000E+00 0.000000000E+00 3.307447492E+02
3.757470000E-03 7.531200000E+00 0.000000000E+00 3.299560609E+02
3.766690000E-03 7.530100000E+00 0.000000000E+00 3.291484035E+02
3.775200000E-03 7.529000000E+00 0.000000000E+00 3.284064420E+02
3.791340000E-03 7.527000000E+00 0.000000000E+00 3.270083928E+02
3.793000000E-03 7.526800000E+00 0.000000000E+00 3.268652781E+02
3.798300000E-03 7.526200000E+00 0.000000000E+00 3.264091831E+02
3.803600000E-03 7.525500000E+00 0.000000000E+00 3.259543590E+02
3.812820000E-03 7.524400000E+00 0.000000000E+00 3.251661500E+02
3.822050000E-03 7.523300000E+00 0.000000000E+00 3.243808951E+02
3.831270000E-03 7.522100000E+00 0.000000000E+00 3.236002683E+02
3.840500000E-03 7.521000000E+00 0.000000000E+00 3.228225491E+02
3.849730000E-03 7.519600000E+00 0.000000000E+00 3.220485592E+02
3.858950000E-03 7.518200000E+00 0.000000000E+00 3.212791044E+02
3.868180000E-03 7.516800000E+00 0.000000000E+00 3.205124891E+02
3.888300000E-03 7.513700000E+00 0.000000000E+00 3.188539979E+02
3.895850000E-03 7.512400000E+00 0.000000000E+00 3.182360717E+02
3.905080000E-03 7.510800000E+00 0.000000000E+00 3.174838928E+02
3.911760000E-03 7.509600000E+00 0.000000000E+00 3.169417347E+02
3.914310000E-03 7.509200000E+00 0.000000000E+00 3.167352611E+02
3.921020000E-03 7.508000000E+00 0.000000000E+00 3.161932354E+02
3.930290000E-03 7.506400000E+00 0.000000000E+00 3.154474606E+02
3.932760000E-03 7.505900000E+00 0.000000000E+00 3.152493414E+02
3.939550000E-03 7.504800000E+00 0.000000000E+00 3.147059943E+02
3.948810000E-03 7.503200000E+00 0.000000000E+00 3.139680056E+02
4.002900000E-03 7.493700000E+00 0.000000000E+00 3.097254490E+02
4.043460000E-03 7.485100000E+00 0.000000000E+00 3.066185890E+02
4.165140000E-03 7.459300000E+00 0.000000000E+00 2.976610630E+02
4.165150000E-03 7.459300000E+00 0.000000000E+00 2.976603484E+02
4.183170000E-03 7.455500000E+00 0.000000000E+00 2.963781056E+02
4.183680000E-03 7.455400000E+00 0.000000000E+00 2.963419764E+02
4.186850000E-03 7.454800000E+00 0.000000000E+00 2.961176063E+02
4.202150000E-03 7.451500000E+00 0.000000000E+00 2.950394441E+02
4.204280000E-03 7.451100000E+00 0.000000000E+00 2.948899693E+02
4.214580000E-03 7.448900000E+00 0.000000000E+00 2.941692885E+02
4.222840000E-03 7.447100000E+00 0.000000000E+00 2.935938847E+02
4.223480000E-03 7.447000000E+00 0.000000000E+00 2.935493953E+02
4.233880000E-03 7.444800000E+00 0.000000000E+00 2.928283277E+02
4.244280000E-03 7.442600000E+00 0.000000000E+00 2.921107938E+02
4.255240000E-03 7.440300000E+00 0.000000000E+00 2.913584193E+02
4.266060000E-03 7.438000000E+00 0.000000000E+00 2.906194475E+02
4.273790000E-03 7.436400000E+00 0.000000000E+00 2.900938043E+02
4.285370000E-03 7.433900000E+00 0.000000000E+00 2.893099079E+02
4.291170000E-03 7.432700000E+00 0.000000000E+00 2.889188729E+02
4.296960000E-03 7.431500000E+00 0.000000000E+00 2.885295651E+02
4.307260000E-03 7.429300000E+00 0.000000000E+00 2.878396010E+02
4.317550000E-03 7.427100000E+00 0.000000000E+00 2.871535941E+02
4.329180000E-03 7.424600000E+00 0.000000000E+00 2.863821786E+02
4.339430000E-03 7.422500000E+00 0.000000000E+00 2.857057263E+02
4.351730000E-03 7.419900000E+00 0.000000000E+00 2.848981899E+02
4.360960000E-03 7.417900000E+00 0.000000000E+00 2.842952011E+02
4.370190000E-03 7.416000000E+00 0.000000000E+00 2.836947593E+02
4.380120000E-03 7.413900000E+00 0.000000000E+00 2.830516059E+02
4.389810000E-03 7.411500000E+00 0.000000000E+00 2.824268021E+02
4.400210000E-03 7.408700000E+00 0.000000000E+00 2.817592797E+02
4.409010000E-03 7.406300000E+00 0.000000000E+00 2.811969127E+02
4.410690000E-03 7.405900000E+00 0.000000000E+00 2.810898068E+02
4.425850000E-03 7.401800000E+00 0.000000000E+00 2.801269813E+02
4.431400000E-03 7.400300000E+00 0.000000000E+00 2.797761430E+02
4.440150000E-03 7.398000000E+00 0.000000000E+00 2.792248010E+02
4.447220000E-03 7.396100000E+00 0.000000000E+00 2.787809013E+02
4.459350000E-03 7.392900000E+00 0.000000000E+00 2.780225818E+02
4.468590000E-03 7.390000000E+00 0.000000000E+00 2.774476960E+02
4.496070000E-03 7.381700000E+00 0.000000000E+00 2.757519345E+02
4.502970000E-03 7.379600000E+00 0.000000000E+00 2.753293937E+02
4.508530000E-03 7.377900000E+00 0.000000000E+00 2.749898526E+02
4.513630000E-03 7.376400000E+00 0.000000000E+00 2.746791385E+02
4.519520000E-03 7.374600000E+00 0.000000000E+00 2.743211668E+02
4.524300000E-03 7.373200000E+00 0.000000000E+00 2.740313419E+02
4.529940000E-03 7.371400000E+00 0.000000000E+00 2.736901593E+02
4.534960000E-03 7.369900000E+00 0.000000000E+00 2.733871964E+02
4.545630000E-03 7.366700000E+00 0.000000000E+00 2.727454720E+02
4.550940000E-03 7.365100000E+00 0.000000000E+00 2.724272348E+02
4.554050000E-03 7.364100000E+00 0.000000000E+00 2.722411919E+02
4.580920000E-03 7.356000000E+00 0.000000000E+00 2.706443247E+02
4.592750000E-03 7.352400000E+00 0.000000000E+00 2.699471994E+02
4.604030000E-03 7.349000000E+00 0.000000000E+00 2.692858213E+02
4.612180000E-03 7.346500000E+00 0.000000000E+00 2.688099771E+02
4.615300000E-03 7.345600000E+00 0.000000000E+00 2.686282582E+02
4.626870000E-03 7.342000000E+00 0.000000000E+00 2.679565235E+02
4.637860000E-03 7.338700000E+00 0.000000000E+00 2.673215664E+02
4.649640000E-03 7.335100000E+00 0.000000000E+00 2.666442993E+02
4.684350000E-03 7.322700000E+00 0.000000000E+00 2.646685239E+02
4.695200000E-03 7.318700000E+00 0.000000000E+00 2.640569092E+02
4.706580000E-03 7.314500000E+00 0.000000000E+00 2.634184482E+02
4.717970000E-03 7.310300000E+00 0.000000000E+00 2.627825103E+02
4.729360000E-03 7.306200000E+00 0.000000000E+00 2.621496355E+02
4.763530000E-03 7.292900000E+00 0.000000000E+00 2.602691701E+02
4.774590000E-03 7.288300000E+00 0.000000000E+00 2.596662750E+02
4.778980000E-03 7.286600000E+00 0.000000000E+00 2.594277440E+02
4.789460000E-03 7.282300000E+00 0.000000000E+00 2.588600803E+02
4.798090000E-03 7.277900000E+00 0.000000000E+00 2.583944861E+02
