# Data retrieved from https://www-nds.iaea.org/epdl97/za1to100.htm 03/01/2021
# Element, Zr  (Z = 40) 
# Atomic weight, g mol-1 = 91.22 
# Nominal density, g cm-3 =  6.50600E+0 
# Relativistic correction estimate f_rel(5CL)*,  e atom-1 =  0 
# Nuclear Thomson correction f_NT*, e atom-1 =  0 
#    E [keV]      f1 [e atom-1]      f2 [e atom-1]    Wavelength [nm] 
1.000000000E-03 7.337400000E+00 0.000000000E+00 1.239800000E+03
1.125000000E-03 7.332600000E+00 0.000000000E+00 1.102044444E+03
1.265630000E-03 7.327300000E+00 0.000000000E+00 9.795911917E+02
1.423830000E-03 7.321200000E+00 0.000000000E+00 8.707500193E+02
1.594390000E-03 7.314700000E+00 0.000000000E+00 7.776014651E+02
1.743630000E-03 7.309000000E+00 0.000000000E+00 7.110453479E+02
1.874220000E-03 7.304000000E+00 0.000000000E+00 6.615018514E+02
2.000000000E-03 7.299300000E+00 0.000000000E+00 6.199000000E+02
2.088460000E-03 7.293000000E+00 0.000000000E+00 5.936431629E+02
2.175950000E-03 7.286900000E+00 0.000000000E+00 5.697741216E+02
2.252490000E-03 7.281500000E+00 0.000000000E+00 5.504130984E+02
2.319470000E-03 7.276700000E+00 0.000000000E+00 5.345186616E+02
2.378080000E-03 7.272600000E+00 0.000000000E+00 5.213449505E+02
2.480640000E-03 7.265400000E+00 0.000000000E+00 4.997903767E+02
2.557560000E-03 7.260000000E+00 0.000000000E+00 4.847589108E+02
2.615260000E-03 7.255900000E+00 0.000000000E+00 4.740637642E+02
2.658520000E-03 7.252800000E+00 0.000000000E+00 4.663496983E+02
2.690980000E-03 7.250600000E+00 0.000000000E+00 4.607243458E+02
2.739650000E-03 7.247100000E+00 0.000000000E+00 4.525395580E+02
2.763990000E-03 7.245400000E+00 0.000000000E+00 4.485544448E+02
2.788330000E-03 7.243700000E+00 0.000000000E+00 4.446389057E+02
2.795190000E-03 7.243200000E+00 0.000000000E+00 4.435476658E+02
2.802060000E-03 7.242700000E+00 0.000000000E+00 4.424601900E+02
2.808920000E-03 7.242200000E+00 0.000000000E+00 4.413796050E+02
2.815780000E-03 7.241800000E+00 0.000000000E+00 4.403042851E+02
2.822640000E-03 7.241300000E+00 0.000000000E+00 4.392341921E+02
2.829510000E-03 7.240800000E+00 0.000000000E+00 4.381677393E+02
2.836370000E-03 7.240300000E+00 0.000000000E+00 4.371079937E+02
2.843230000E-03 7.239800000E+00 0.000000000E+00 4.360533618E+02
2.850100000E-03 7.239300000E+00 0.000000000E+00 4.350022806E+02
2.856960000E-03 7.238900000E+00 0.000000000E+00 4.339577733E+02
2.863820000E-03 7.238400000E+00 0.000000000E+00 4.329182700E+02
2.867020000E-03 7.238200000E+00 0.000000000E+00 4.324350720E+02
2.870210000E-03 7.237900000E+00 0.000000000E+00 4.319544563E+02
2.884410000E-03 7.236900000E+00 0.000000000E+00 4.298279371E+02
2.891410000E-03 7.236400000E+00 0.000000000E+00 4.287873390E+02
2.898470000E-03 7.235900000E+00 0.000000000E+00 4.277429126E+02
2.905540000E-03 7.235400000E+00 0.000000000E+00 4.267020932E+02
2.908830000E-03 7.235200000E+00 0.000000000E+00 4.262194766E+02
2.913780000E-03 7.234900000E+00 0.000000000E+00 4.254954046E+02
2.918730000E-03 7.234500000E+00 0.000000000E+00 4.247737886E+02
2.922730000E-03 7.234200000E+00 0.000000000E+00 4.241924502E+02
2.926730000E-03 7.233900000E+00 0.000000000E+00 4.236127009E+02
2.932030000E-03 7.233600000E+00 0.000000000E+00 4.228469695E+02
2.933800000E-03 7.233400000E+00 0.000000000E+00 4.225918604E+02
2.939980000E-03 7.233000000E+00 0.000000000E+00 4.217035490E+02
2.941740000E-03 7.232900000E+00 0.000000000E+00 4.214512499E+02
2.943290000E-03 7.232800000E+00 0.000000000E+00 4.212293046E+02
2.945610000E-03 7.232600000E+00 0.000000000E+00 4.208975390E+02
2.946770000E-03 7.232500000E+00 0.000000000E+00 4.207318522E+02
2.947350000E-03 7.232500000E+00 0.000000000E+00 4.206490576E+02
2.948370000E-03 7.232400000E+00 0.000000000E+00 4.205035325E+02
2.950020000E-03 7.232300000E+00 0.000000000E+00 4.202683372E+02
2.956760000E-03 7.231800000E+00 0.000000000E+00 4.193103262E+02
2.959400000E-03 7.231600000E+00 0.000000000E+00 4.189362709E+02
2.962050000E-03 7.231500000E+00 0.000000000E+00 4.185614693E+02
2.965590000E-03 7.231200000E+00 0.000000000E+00 4.180618359E+02
2.969120000E-03 7.231000000E+00 0.000000000E+00 4.175648003E+02
2.972650000E-03 7.230700000E+00 0.000000000E+00 4.170689452E+02
2.976180000E-03 7.230500000E+00 0.000000000E+00 4.165742663E+02
2.983250000E-03 7.230000000E+00 0.000000000E+00 4.155870276E+02
2.990310000E-03 7.229500000E+00 0.000000000E+00 4.146058435E+02
2.997380000E-03 7.229000000E+00 0.000000000E+00 4.136279017E+02
3.007970000E-03 7.228000000E+00 0.000000000E+00 4.121716639E+02
3.009740000E-03 7.227800000E+00 0.000000000E+00 4.119292696E+02
3.011510000E-03 7.227600000E+00 0.000000000E+00 4.116871603E+02
3.013710000E-03 7.227400000E+00 0.000000000E+00 4.113866298E+02
3.018040000E-03 7.226900000E+00 0.000000000E+00 4.107964109E+02
3.022240000E-03 7.226500000E+00 0.000000000E+00 4.102255281E+02
3.026310000E-03 7.226100000E+00 0.000000000E+00 4.096738272E+02
3.030240000E-03 7.225700000E+00 0.000000000E+00 4.091425102E+02
3.034060000E-03 7.225300000E+00 0.000000000E+00 4.086273838E+02
3.035910000E-03 7.225100000E+00 0.000000000E+00 4.083783775E+02
3.037730000E-03 7.225000000E+00 0.000000000E+00 4.081337051E+02
3.038620000E-03 7.224900000E+00 0.000000000E+00 4.080141643E+02
3.095500000E-03 7.219100000E+00 0.000000000E+00 4.005168793E+02
3.109710000E-03 7.217600000E+00 0.000000000E+00 3.986866943E+02
3.120380000E-03 7.216600000E+00 0.000000000E+00 3.973234029E+02
3.128380000E-03 7.215700000E+00 0.000000000E+00 3.963073540E+02
3.140370000E-03 7.214500000E+00 0.000000000E+00 3.947942440E+02
3.146370000E-03 7.213900000E+00 0.000000000E+00 3.940413874E+02
3.149370000E-03 7.213600000E+00 0.000000000E+00 3.936660348E+02
3.152370000E-03 7.213300000E+00 0.000000000E+00 3.932913966E+02
3.156250000E-03 7.212900000E+00 0.000000000E+00 3.928079208E+02
3.160130000E-03 7.212500000E+00 0.000000000E+00 3.923256322E+02
3.167890000E-03 7.211700000E+00 0.000000000E+00 3.913645991E+02
3.175650000E-03 7.211000000E+00 0.000000000E+00 3.904082629E+02
3.183410000E-03 7.210200000E+00 0.000000000E+00 3.894565890E+02
3.191160000E-03 7.209400000E+00 0.000000000E+00 3.885107610E+02
3.195040000E-03 7.209000000E+00 0.000000000E+00 3.880389604E+02
3.198920000E-03 7.208600000E+00 0.000000000E+00 3.875683043E+02
3.202800000E-03 7.208200000E+00 0.000000000E+00 3.870987886E+02
3.206680000E-03 7.207800000E+00 0.000000000E+00 3.866304090E+02
3.210560000E-03 7.207400000E+00 0.000000000E+00 3.861631616E+02
3.214440000E-03 7.207000000E+00 0.000000000E+00 3.856970421E+02
3.218320000E-03 7.206600000E+00 0.000000000E+00 3.852320465E+02
3.220260000E-03 7.206400000E+00 0.000000000E+00 3.849999689E+02
3.223170000E-03 7.206100000E+00 0.000000000E+00 3.846523764E+02
3.226570000E-03 7.205800000E+00 0.000000000E+00 3.842470487E+02
3.228260000E-03 7.205600000E+00 0.000000000E+00 3.840458947E+02
3.228690000E-03 7.205600000E+00 0.000000000E+00 3.839947471E+02
3.229010000E-03 7.205500000E+00 0.000000000E+00 3.839566926E+02
3.229060000E-03 7.205500000E+00 0.000000000E+00 3.839507473E+02
3.229290000E-03 7.205500000E+00 0.000000000E+00 3.839234011E+02
3.229620000E-03 7.205500000E+00 0.000000000E+00 3.838841721E+02
3.229790000E-03 7.205500000E+00 0.000000000E+00 3.838639664E+02
3.230200000E-03 7.205400000E+00 0.000000000E+00 3.838152436E+02
3.237720000E-03 7.204600000E+00 0.000000000E+00 3.829237859E+02
3.239660000E-03 7.204500000E+00 0.000000000E+00 3.826944803E+02
3.245480000E-03 7.203900000E+00 0.000000000E+00 3.820082083E+02
3.248640000E-03 7.203500000E+00 0.000000000E+00 3.816366233E+02
3.253390000E-03 7.203100000E+00 0.000000000E+00 3.810794279E+02
3.258140000E-03 7.202600000E+00 0.000000000E+00 3.805238572E+02
3.263450000E-03 7.202000000E+00 0.000000000E+00 3.799047021E+02
3.268760000E-03 7.201500000E+00 0.000000000E+00 3.792875586E+02
3.276510000E-03 7.200700000E+00 0.000000000E+00 3.783904215E+02
3.284270000E-03 7.199900000E+00 0.000000000E+00 3.774963691E+02
3.292030000E-03 7.199100000E+00 0.000000000E+00 3.766065315E+02
3.299790000E-03 7.198300000E+00 0.000000000E+00 3.757208792E+02
3.307550000E-03 7.197600000E+00 0.000000000E+00 3.748393826E+02
3.310700000E-03 7.197200000E+00 0.000000000E+00 3.744827378E+02
3.313840000E-03 7.196900000E+00 0.000000000E+00 3.741279000E+02
3.322000000E-03 7.196100000E+00 0.000000000E+00 3.732089103E+02
3.330160000E-03 7.195300000E+00 0.000000000E+00 3.722944243E+02
3.338310000E-03 7.194400000E+00 0.000000000E+00 3.713855214E+02
3.346470000E-03 7.193600000E+00 0.000000000E+00 3.704799386E+02
3.354630000E-03 7.192800000E+00 0.000000000E+00 3.695787613E+02
3.362110000E-03 7.192000000E+00 0.000000000E+00 3.687565249E+02
3.369600000E-03 7.191300000E+00 0.000000000E+00 3.679368471E+02
3.379100000E-03 7.190300000E+00 0.000000000E+00 3.669024296E+02
3.387250000E-03 7.189500000E+00 0.000000000E+00 3.660196324E+02
3.395730000E-03 7.188600000E+00 0.000000000E+00 3.651055885E+02
3.404090000E-03 7.187800000E+00 0.000000000E+00 3.642089369E+02
3.412440000E-03 7.186900000E+00 0.000000000E+00 3.633177433E+02
3.420800000E-03 7.186100000E+00 0.000000000E+00 3.624298410E+02
3.429160000E-03 7.185200000E+00 0.000000000E+00 3.615462679E+02
3.437520000E-03 7.184400000E+00 0.000000000E+00 3.606669925E+02
3.444350000E-03 7.183700000E+00 0.000000000E+00 3.599518051E+02
3.452510000E-03 7.182800000E+00 0.000000000E+00 3.591010598E+02
3.461730000E-03 7.181900000E+00 0.000000000E+00 3.581446271E+02
3.470950000E-03 7.181000000E+00 0.000000000E+00 3.571932756E+02
3.476980000E-03 7.180400000E+00 0.000000000E+00 3.565738083E+02
3.479310000E-03 7.180100000E+00 0.000000000E+00 3.563350204E+02
3.487670000E-03 7.179300000E+00 0.000000000E+00 3.554808798E+02
3.496030000E-03 7.178400000E+00 0.000000000E+00 3.546308241E+02
3.504380000E-03 7.177600000E+00 0.000000000E+00 3.537858337E+02
3.521100000E-03 7.175900000E+00 0.000000000E+00 3.521058760E+02
3.529460000E-03 7.175000000E+00 0.000000000E+00 3.512718660E+02
3.537820000E-03 7.174200000E+00 0.000000000E+00 3.504417975E+02
3.546180000E-03 7.173300000E+00 0.000000000E+00 3.496156427E+02
3.554530000E-03 7.172500000E+00 0.000000000E+00 3.487943554E+02
3.562890000E-03 7.171600000E+00 0.000000000E+00 3.479759409E+02
3.588510000E-03 7.169000000E+00 0.000000000E+00 3.454915829E+02
3.636540000E-03 7.164200000E+00 0.000000000E+00 3.409284650E+02
3.720590000E-03 7.155600000E+00 0.000000000E+00 3.332267194E+02
3.783620000E-03 7.148100000E+00 0.000000000E+00 3.276756122E+02
3.972740000E-03 7.122500000E+00 0.000000000E+00 3.120768034E+02
3.982510000E-03 7.121100000E+00 0.000000000E+00 3.113112083E+02
3.992290000E-03 7.119800000E+00 0.000000000E+00 3.105485824E+02
4.002070000E-03 7.118500000E+00 0.000000000E+00 3.097896838E+02
4.011850000E-03 7.117000000E+00 0.000000000E+00 3.090344853E+02
4.021630000E-03 7.115600000E+00 0.000000000E+00 3.082829599E+02
4.031410000E-03 7.114100000E+00 0.000000000E+00 3.075350808E+02
4.041180000E-03 7.112700000E+00 0.000000000E+00 3.067915807E+02
4.050960000E-03 7.111200000E+00 0.000000000E+00 3.060509114E+02
4.060740000E-03 7.109800000E+00 0.000000000E+00 3.053138098E+02
4.070520000E-03 7.108400000E+00 0.000000000E+00 3.045802502E+02
4.080300000E-03 7.106900000E+00 0.000000000E+00 3.038502071E+02
4.090080000E-03 7.105500000E+00 0.000000000E+00 3.031236553E+02
4.099860000E-03 7.104000000E+00 0.000000000E+00 3.024005698E+02
4.119410000E-03 7.101100000E+00 0.000000000E+00 3.009654295E+02
4.129190000E-03 7.099700000E+00 0.000000000E+00 3.002525919E+02
4.138970000E-03 7.098300000E+00 0.000000000E+00 2.995431230E+02
4.148750000E-03 7.096800000E+00 0.000000000E+00 2.988369991E+02
4.158530000E-03 7.095400000E+00 0.000000000E+00 2.981341965E+02
4.168300000E-03 7.093900000E+00 0.000000000E+00 2.974354053E+02
4.252540000E-03 7.081500000E+00 0.000000000E+00 2.915434070E+02
4.336780000E-03 7.069000000E+00 0.000000000E+00 2.858803075E+02
4.347450000E-03 7.067500000E+00 0.000000000E+00 2.851786680E+02
4.358120000E-03 7.065900000E+00 0.000000000E+00 2.844804641E+02
4.368800000E-03 7.064300000E+00 0.000000000E+00 2.837850211E+02
4.379470000E-03 7.062600000E+00 0.000000000E+00 2.830936164E+02
4.390150000E-03 7.060700000E+00 0.000000000E+00 2.824049292E+02
4.400820000E-03 7.058700000E+00 0.000000000E+00 2.817202249E+02
4.413300000E-03 7.056300000E+00 0.000000000E+00 2.809235719E+02
4.422170000E-03 7.054400000E+00 0.000000000E+00 2.803600947E+02
4.432850000E-03 7.052200000E+00 0.000000000E+00 2.796846273E+02
4.443520000E-03 7.049900000E+00 0.000000000E+00 2.790130347E+02
4.454190000E-03 7.047700000E+00 0.000000000E+00 2.783446597E+02
4.464870000E-03 7.045400000E+00 0.000000000E+00 2.776788574E+02
4.475540000E-03 7.043100000E+00 0.000000000E+00 2.770168516E+02
4.486220000E-03 7.040900000E+00 0.000000000E+00 2.763573788E+02
4.498240000E-03 7.038300000E+00 0.000000000E+00 2.756189087E+02
4.509310000E-03 7.036000000E+00 0.000000000E+00 2.749422861E+02
4.520390000E-03 7.033600000E+00 0.000000000E+00 2.742683706E+02
4.531460000E-03 7.031300000E+00 0.000000000E+00 2.735983546E+02
4.542530000E-03 7.028900000E+00 0.000000000E+00 2.729316042E+02
4.553600000E-03 7.026600000E+00 0.000000000E+00 2.722680956E+02
4.572380000E-03 7.022600000E+00 0.000000000E+00 2.711498169E+02
4.583870000E-03 7.020200000E+00 0.000000000E+00 2.704701486E+02
4.606440000E-03 7.015400000E+00 0.000000000E+00 2.691449362E+02
4.617720000E-03 7.013000000E+00 0.000000000E+00 2.684874787E+02
4.629000000E-03 7.010600000E+00 0.000000000E+00 2.678332253E+02
4.640290000E-03 7.008200000E+00 0.000000000E+00 2.671815770E+02
4.651130000E-03 7.005900000E+00 0.000000000E+00 2.665588792E+02
4.661970000E-03 7.003600000E+00 0.000000000E+00 2.659390773E+02
4.675390000E-03 7.000700000E+00 0.000000000E+00 2.651757394E+02
4.686460000E-03 6.998400000E+00 0.000000000E+00 2.645493614E+02
4.697530000E-03 6.996100000E+00 0.000000000E+00 2.639259355E+02
4.708610000E-03 6.993700000E+00 0.000000000E+00 2.633048819E+02
4.719680000E-03 6.991400000E+00 0.000000000E+00 2.626873008E+02
4.733320000E-03 6.988500000E+00 0.000000000E+00 2.619303153E+02
4.753110000E-03 6.984300000E+00 0.000000000E+00 2.608397449E+02
4.764400000E-03 6.981900000E+00 0.000000000E+00 2.602216439E+02
4.775680000E-03 6.979500000E+00 0.000000000E+00 2.596070088E+02
4.786960000E-03 6.977100000E+00 0.000000000E+00 2.589952705E+02
4.801050000E-03 6.974100000E+00 0.000000000E+00 2.582351777E+02
4.809530000E-03 6.972300000E+00 0.000000000E+00 2.577798662E+02
4.812340000E-03 6.971700000E+00 0.000000000E+00 2.576293446E+02
4.820280000E-03 6.970000000E+00 0.000000000E+00 2.572049756E+02
4.907380000E-03 6.951600000E+00 0.000000000E+00 2.526399015E+02
4.921900000E-03 6.948500000E+00 0.000000000E+00 2.518945936E+02
4.936420000E-03 6.945400000E+00 0.000000000E+00 2.511536701E+02
4.960720000E-03 6.939200000E+00 0.000000000E+00 2.499233982E+02
4.972870000E-03 6.936100000E+00 0.000000000E+00 2.493127711E+02
4.985020000E-03 6.933000000E+00 0.000000000E+00 2.487051205E+02
4.991090000E-03 6.931500000E+00 0.000000000E+00 2.484026535E+02
4.997170000E-03 6.929900000E+00 0.000000000E+00 2.481004248E+02
5.002670000E-03 6.928500000E+00 0.000000000E+00 2.478276600E+02
5.010930000E-03 6.926400000E+00 0.000000000E+00 2.474191418E+02
5.015050000E-03 6.925400000E+00 0.000000000E+00 2.472158802E+02
5.019180000E-03 6.924300000E+00 0.000000000E+00 2.470124602E+02
5.027540000E-03 6.922200000E+00 0.000000000E+00 2.466017177E+02
5.031720000E-03 6.921100000E+00 0.000000000E+00 2.463968583E+02
5.035900000E-03 6.920000000E+00 0.000000000E+00 2.461923390E+02
5.045770000E-03 6.917500000E+00 0.000000000E+00 2.457107637E+02
5.057920000E-03 6.914400000E+00 0.000000000E+00 2.451205239E+02
5.070070000E-03 6.911300000E+00 0.000000000E+00 2.445331130E+02
5.084650000E-03 6.907600000E+00 0.000000000E+00 2.438319255E+02
5.098360000E-03 6.904100000E+00 0.000000000E+00 2.431762371E+02
5.112070000E-03 6.900600000E+00 0.000000000E+00 2.425240656E+02
5.119640000E-03 6.898700000E+00 0.000000000E+00 2.421654648E+02
5.130820000E-03 6.895800000E+00 0.000000000E+00 2.416377889E+02
5.142970000E-03 6.892700000E+00 0.000000000E+00 2.410669321E+02
5.150490000E-03 6.890800000E+00 0.000000000E+00 2.407149611E+02
5.155120000E-03 6.889600000E+00 0.000000000E+00 2.404987663E+02
5.163160000E-03 6.887500000E+00 0.000000000E+00 2.401242650E+02
5.179420000E-03 6.883400000E+00 0.000000000E+00 2.393704314E+02
5.190830000E-03 6.880500000E+00 0.000000000E+00 2.388442696E+02
5.202240000E-03 6.877600000E+00 0.000000000E+00 2.383204158E+02
5.212730000E-03 6.874900000E+00 0.000000000E+00 2.378408243E+02
5.225320000E-03 6.871700000E+00 0.000000000E+00 2.372677654E+02
5.237900000E-03 6.868400000E+00 0.000000000E+00 2.366979133E+02
5.250480000E-03 6.865200000E+00 0.000000000E+00 2.361307919E+02
5.267360000E-03 6.860900000E+00 0.000000000E+00 2.353740773E+02
5.298660000E-03 6.852900000E+00 0.000000000E+00 2.339836864E+02
5.313400000E-03 6.849200000E+00 0.000000000E+00 2.333345880E+02
5.325980000E-03 6.845400000E+00 0.000000000E+00 2.327834502E+02
5.349350000E-03 6.837800000E+00 0.000000000E+00 2.317664763E+02
5.362100000E-03 6.833700000E+00 0.000000000E+00 2.312153820E+02
5.378680000E-03 6.828300000E+00 0.000000000E+00 2.305026512E+02
5.384240000E-03 6.826500000E+00 0.000000000E+00 2.302646242E+02
5.395130000E-03 6.822900000E+00 0.000000000E+00 2.297998380E+02
5.404030000E-03 6.820000000E+00 0.000000000E+00 2.294213763E+02
5.408250000E-03 6.818600000E+00 0.000000000E+00 2.292423612E+02
5.420680000E-03 6.814000000E+00 0.000000000E+00 2.287166924E+02
5.438650000E-03 6.807400000E+00 0.000000000E+00 2.279609830E+02
5.446230000E-03 6.804600000E+00 0.000000000E+00 2.276437095E+02
5.447560000E-03 6.804100000E+00 0.000000000E+00 2.275881312E+02
5.448150000E-03 6.803900000E+00 0.000000000E+00 2.275634849E+02
5.449340000E-03 6.803400000E+00 0.000000000E+00 2.275137907E+02
5.472110000E-03 6.795000000E+00 0.000000000E+00 2.265670829E+02
5.476180000E-03 6.793500000E+00 0.000000000E+00 2.263986940E+02
5.489590000E-03 6.788600000E+00 0.000000000E+00 2.258456460E+02
5.503000000E-03 6.783600000E+00 0.000000000E+00 2.252952935E+02
5.516420000E-03 6.778600000E+00 0.000000000E+00 2.247472092E+02
5.539460000E-03 6.770100000E+00 0.000000000E+00 2.238124294E+02
5.561680000E-03 6.761900000E+00 0.000000000E+00 2.229182549E+02
5.570250000E-03 6.758700000E+00 0.000000000E+00 2.225752884E+02
5.583930000E-03 6.753700000E+00 0.000000000E+00 2.220300040E+02
5.597600000E-03 6.748600000E+00 0.000000000E+00 2.214877805E+02
5.615510000E-03 6.742000000E+00 0.000000000E+00 2.207813716E+02
5.639400000E-03 6.733200000E+00 0.000000000E+00 2.198460829E+02
5.680840000E-03 6.717800000E+00 0.000000000E+00 2.182423726E+02
5.719550000E-03 6.703500000E+00 0.000000000E+00 2.167653050E+02
5.761720000E-03 6.687900000E+00 0.000000000E+00 2.151788008E+02
5.789080000E-03 6.677800000E+00 0.000000000E+00 2.141618357E+02
5.845130000E-03 6.652500000E+00 0.000000000E+00 2.121081995E+02
5.907960000E-03 6.619500000E+00 2.045180000E-06 2.098524702E+02
5.963400000E-03 6.579700000E+00 1.719600000E-04 2.079015327E+02
5.988690000E-03 6.558500000E+00 8.522540000E-04 2.070235728E+02
6.033670000E-03 6.511200000E+00 8.003840000E-03 2.054802467E+02
6.054450000E-03 6.484200000E+00 1.760940000E-02 2.047750002E+02
6.072980000E-03 6.460500000E+00 3.149140000E-02 2.041501866E+02
6.111000000E-03 6.424600000E+00 7.486310000E-02 2.028800524E+02
6.129910000E-03 6.415600000E+00 9.957100000E-02 2.022541930E+02
6.154460000E-03 6.415200000E+00 1.281240000E-01 2.014474056E+02
6.191470000E-03 6.423300000E+00 1.546960000E-01 2.002432379E+02
6.209460000E-03 6.427700000E+00 1.602800000E-01 1.996630947E+02
6.218120000E-03 6.429200000E+00 1.616800000E-01 1.993850231E+02
6.238690000E-03 6.431100000E+00 1.626710000E-01 1.987276175E+02
