# Data retrieved from physics.nist.gov 03/01/2021
# Element, Au  (Z = 79) 
# Atomic weight, g mol-1 = 196.9665 
# Nominal density, g cm-3 =  1.8850E+01 
# Relativistic correction estimate f_rel(5CL),  e atom-1 =  -1.0134E+00 
# Nuclear Thomson correction f_NT, e atom-1 =  -1.7382E-02 
#    E [keV]      f1 [e atom-1]      f2 [e atom-1]    Wavelength [nm] 
6.654510000E-03 2.887620000E+00 0.000000000E+00 1.863000000E+02
6.756365000E-03 2.246340000E+00 0.000000000E+00 1.835000000E+02
6.783526000E-03 1.536270000E+00 0.000000000E+00 1.828000000E+02
6.824268000E-03 2.227820000E+00 1.364100000E+00 1.817000000E+02
6.926123000E-03 2.790030000E+00 1.344800000E+00 1.790000000E+02
8.142217000E-03 2.535880000E+00 1.237400000E+00 1.523000000E+02
8.266843000E-03 2.065400000E+00 1.251900000E+00 1.500000000E+02
8.300076000E-03 1.545420000E+00 1.256400000E+00 1.494000000E+02
8.349926000E-03 2.057490000E+00 2.260500000E+00 1.485000000E+02
8.474552000E-03 2.466050000E+00 2.249800000E+00 1.463000000E+02
1.069000000E-02 1.809130000E+00 2.995300000E+00 1.160000000E+02
1.142761000E-02 1.376550000E+00 3.604800000E+00 1.085000000E+02
1.221612000E-02 9.653280000E-01 4.406000000E+00 1.015000000E+02
1.305903000E-02 6.243030000E-01 5.409800000E+00 9.494000000E+01
1.396010000E-02 4.117930000E-01 6.618500000E+00 8.881000000E+01
1.492335000E-02 3.940790000E-01 8.017900000E+00 8.308000000E+01
1.595306000E-02 6.399620000E-01 9.571700000E+00 7.772000000E+01
1.705382000E-02 1.211940000E+00 1.121700000E+01 7.270000000E+01
1.823053000E-02 2.155040000E+00 1.286700000E+01 6.801000000E+01
1.948844000E-02 3.485330000E+00 1.441300000E+01 6.362000000E+01
2.083314000E-02 5.254900000E+00 1.574000000E+01 5.951000000E+01
2.227063000E-02 7.253210000E+00 1.673900000E+01 5.567000000E+01
2.380730000E-02 9.454270000E+00 1.732700000E+01 5.208000000E+01
2.545001000E-02 1.177270000E+01 1.745700000E+01 4.872000000E+01
2.720606000E-02 1.399850000E+01 1.713000000E+01 4.557000000E+01
2.908327000E-02 1.604740000E+01 1.638200000E+01 4.263000000E+01
3.109002000E-02 1.781490000E+01 1.529000000E+01 3.988000000E+01
3.323523000E-02 1.923620000E+01 1.395800000E+01 3.731000000E+01
3.552846000E-02 2.028400000E+01 1.249100000E+01 3.490000000E+01
3.797993000E-02 2.095860000E+01 1.098500000E+01 3.264000000E+01
4.060054000E-02 2.128410000E+01 9.523600000E+00 3.054000000E+01
4.340198000E-02 2.129060000E+01 8.164700000E+00 2.857000000E+01
4.639671000E-02 2.098630000E+01 6.941900000E+00 2.672000000E+01
4.959809000E-02 2.027980000E+01 5.869700000E+00 2.500000000E+01
5.262600000E-02 1.860730000E+01 5.044000000E+00 2.356000000E+01
5.302035000E-02 1.804250000E+01 4.948200000E+00 2.338000000E+01
5.343150000E-02 1.688980000E+01 4.850900000E+00 2.320000000E+01
5.364630000E-02 1.486450000E+01 4.801100000E+00 2.311000000E+01
5.396850000E-02 1.697750000E+01 8.693000000E+00 2.297000000E+01
5.477400000E-02 1.878330000E+01 8.371600000E+00 2.264000000E+01
5.667876000E-02 2.001230000E+01 7.675000000E+00 2.187000000E+01
6.058959000E-02 2.065790000E+01 6.480300000E+00 2.046000000E+01
6.477028000E-02 2.057460000E+01 5.468000000E+00 1.914000000E+01
6.923942000E-02 1.989370000E+01 4.621500000E+00 1.791000000E+01
7.026600000E-02 1.954100000E+01 4.455400000E+00 1.764000000E+01
7.134150000E-02 1.869080000E+01 4.291200000E+00 1.738000000E+01
7.162830000E-02 1.774350000E+01 4.249000000E+00 1.731000000E+01
7.205850000E-02 1.866420000E+01 6.009300000E+00 1.721000000E+01
7.313400000E-02 1.941560000E+01 5.844500000E+00 1.695000000E+01
7.401695000E-02 1.964120000E+01 5.715700000E+00 1.675000000E+01
7.912411000E-02 1.989390000E+01 5.072800000E+00 1.567000000E+01
8.114400000E-02 1.976640000E+01 4.849800000E+00 1.528000000E+01
8.238600000E-02 1.949390000E+01 4.715600000E+00 1.505000000E+01
8.271720000E-02 1.917930000E+01 4.680200000E+00 1.499000000E+01
8.321400000E-02 1.948570000E+01 5.230300000E+00 1.490000000E+01
8.445600000E-02 1.970290000E+01 5.081400000E+00 1.468000000E+01
8.458368000E-02 1.970890000E+01 5.066300000E+00 1.466000000E+01
8.467200000E-02 1.971200000E+01 5.055900000E+00 1.464000000E+01
8.596800000E-02 1.963170000E+01 4.905400000E+00 1.442000000E+01
8.631360000E-02 1.944330000E+01 4.866000000E+00 1.436000000E+01
8.683200000E-02 1.967120000E+01 5.206400000E+00 1.428000000E+01
8.812800000E-02 1.987610000E+01 5.054200000E+00 1.407000000E+01
9.041995000E-02 1.997420000E+01 4.797100000E+00 1.371000000E+01
9.665893000E-02 1.983060000E+01 4.201500000E+00 1.283000000E+01
1.033284000E-01 1.940540000E+01 3.759800000E+00 1.200000000E+01
1.056440000E-01 1.921520000E+01 3.647100000E+00 1.174000000E+01
1.072610000E-01 1.904920000E+01 3.579400000E+00 1.156000000E+01
1.076922000E-01 1.896660000E+01 3.562800000E+00 1.151000000E+01
1.083390000E-01 1.896350000E+01 3.634400000E+00 1.144000000E+01
1.099560000E-01 1.887430000E+01 3.582100000E+00 1.128000000E+01
1.104581000E-01 1.883920000E+01 3.567400000E+00 1.122000000E+01
1.180797000E-01 1.821900000E+01 3.435100000E+00 1.050000000E+01
1.262272000E-01 1.748050000E+01 3.463400000E+00 9.822000000E+00
1.349368000E-01 1.665500000E+01 3.684800000E+00 9.188000000E+00
1.442475000E-01 1.576620000E+01 4.113900000E+00 8.595000000E+00
1.542005000E-01 1.483920000E+01 4.780900000E+00 8.040000000E+00
1.648404000E-01 1.392000000E+01 5.727500000E+00 7.521000000E+00
1.762144000E-01 1.305830000E+01 6.974800000E+00 7.036000000E+00
1.883732000E-01 1.233200000E+01 8.534100000E+00 6.582000000E+00
2.013709000E-01 1.182520000E+01 1.039500000E+01 6.157000000E+00
2.152655000E-01 1.162850000E+01 1.251900000E+01 5.760000000E+00
2.301188000E-01 1.181010000E+01 1.483600000E+01 5.388000000E+00
2.459970000E-01 1.242750000E+01 1.724700000E+01 5.040000000E+00
2.629708000E-01 1.351010000E+01 1.963700000E+01 4.715000000E+00
2.811158000E-01 1.501510000E+01 2.188400000E+01 4.410000000E+00
3.005128000E-01 1.687660000E+01 2.387300000E+01 4.126000000E+00
3.212482000E-01 1.892080000E+01 2.550800000E+01 3.859000000E+00
3.272220000E-01 1.944240000E+01 2.588800000E+01 3.789000000E+00
3.322305000E-01 1.971430000E+01 2.617700000E+01 3.732000000E+00
3.335661000E-01 1.956270000E+01 2.624900000E+01 3.717000000E+00
3.355695000E-01 2.003790000E+01 2.691700000E+01 3.695000000E+00
3.405780000E-01 2.077410000E+01 2.719700000E+01 3.640000000E+00
3.434143000E-01 2.110740000E+01 2.734500000E+01 3.610000000E+00
3.449600000E-01 2.127600000E+01 2.742100000E+01 3.594000000E+00
3.502400000E-01 2.173250000E+01 2.766500000E+01 3.540000000E+00
3.516480000E-01 2.168400000E+01 2.772600000E+01 3.526000000E+00
3.537600000E-01 2.213700000E+01 2.823400000E+01 3.505000000E+00
3.590400000E-01 2.292770000E+01 2.845800000E+01 3.453000000E+00
3.671099000E-01 2.394580000E+01 2.875500000E+01 3.377000000E+00
3.924405000E-01 2.683160000E+01 2.935900000E+01 3.159000000E+00
4.195189000E-01 2.958220000E+01 2.955700000E+01 2.955000000E+00
4.484657000E-01 3.214680000E+01 2.940200000E+01 2.765000000E+00
4.794098000E-01 3.445260000E+01 2.895800000E+01 2.586000000E+00
5.000000000E-01 3.685960000E+01 2.855900000E+01 2.480000000E+00
5.025000000E-01 3.699820000E+01 2.850600000E+01 2.467000000E+00
5.050125000E-01 3.713340000E+01 2.845200000E+01 2.455000000E+00
5.075375600E-01 3.726500000E+01 2.839800000E+01 2.443000000E+00
5.100752500E-01 3.739270000E+01 2.834200000E+01 2.431000000E+00
5.126256300E-01 3.751600000E+01 2.828600000E+01 2.419000000E+00
5.151887500E-01 3.763440000E+01 2.822800000E+01 2.407000000E+00
5.177647000E-01 3.774730000E+01 2.817000000E+01 2.395000000E+00
5.203535200E-01 3.785380000E+01 2.811100000E+01 2.383000000E+00
5.229552900E-01 3.795280000E+01 2.805100000E+01 2.371000000E+00
5.255700700E-01 3.804270000E+01 2.799000000E+01 2.359000000E+00
5.281979200E-01 3.812120000E+01 2.792800000E+01 2.347000000E+00
5.308389100E-01 3.818500000E+01 2.786600000E+01 2.336000000E+00
5.334931000E-01 3.822850000E+01 2.780200000E+01 2.324000000E+00
5.361605700E-01 3.824190000E+01 2.773800000E+01 2.312000000E+00
5.388413700E-01 3.820520000E+01 2.767300000E+01 2.301000000E+00
5.415355800E-01 3.806540000E+01 2.760800000E+01 2.289000000E+00
5.442432500E-01 3.755430000E+01 2.754200000E+01 2.278000000E+00
5.446964600E-01 3.730740000E+01 2.753100000E+01 2.276000000E+00
5.461035900E-01 3.738210000E+01 2.920900000E+01 2.270000000E+00
5.469644700E-01 3.786330000E+01 2.918800000E+01 2.267000000E+00
5.496992900E-01 3.855830000E+01 2.912300000E+01 2.255000000E+00
5.524477900E-01 3.897110000E+01 2.905800000E+01 2.244000000E+00
5.552100300E-01 3.929360000E+01 2.899100000E+01 2.233000000E+00
5.579860800E-01 3.957060000E+01 2.892400000E+01 2.222000000E+00
5.607760100E-01 3.981970000E+01 2.885600000E+01 2.211000000E+00
5.635798900E-01 4.004980000E+01 2.878800000E+01 2.200000000E+00
5.663977900E-01 4.026590000E+01 2.872000000E+01 2.189000000E+00
5.692297800E-01 4.047110000E+01 2.865000000E+01 2.178000000E+00
5.720759300E-01 4.066760000E+01 2.858100000E+01 2.167000000E+00
5.749363000E-01 4.085680000E+01 2.851000000E+01 2.156000000E+00
5.778109900E-01 4.103970000E+01 2.843900000E+01 2.146000000E+00
5.807000400E-01 4.121720000E+01 2.836800000E+01 2.135000000E+00
5.836035400E-01 4.138990000E+01 2.829600000E+01 2.124000000E+00
5.865215600E-01 4.155810000E+01 2.822400000E+01 2.114000000E+00
5.894541700E-01 4.172230000E+01 2.815200000E+01 2.103000000E+00
5.924014400E-01 4.188280000E+01 2.807900000E+01 2.093000000E+00
5.953634500E-01 4.203970000E+01 2.800500000E+01 2.082000000E+00
5.983402600E-01 4.219330000E+01 2.793100000E+01 2.072000000E+00
6.013319600E-01 4.234360000E+01 2.785700000E+01 2.062000000E+00
6.043386200E-01 4.249070000E+01 2.778300000E+01 2.052000000E+00
6.073603200E-01 4.263470000E+01 2.770800000E+01 2.041000000E+00
6.103971200E-01 4.277550000E+01 2.763200000E+01 2.031000000E+00
6.134491000E-01 4.291300000E+01 2.755700000E+01 2.021000000E+00
6.165163500E-01 4.304710000E+01 2.748100000E+01 2.011000000E+00
6.195989300E-01 4.317750000E+01 2.740400000E+01 2.001000000E+00
6.226969300E-01 4.330380000E+01 2.732800000E+01 1.991000000E+00
6.258104100E-01 4.342540000E+01 2.725100000E+01 1.981000000E+00
6.289394600E-01 4.354130000E+01 2.717400000E+01 1.971000000E+00
6.320841600E-01 4.364950000E+01 2.709600000E+01 1.962000000E+00
6.352445800E-01 4.374640000E+01 2.701800000E+01 1.952000000E+00
6.384208000E-01 4.382270000E+01 2.694000000E+01 1.942000000E+00
6.416129100E-01 4.384140000E+01 2.686200000E+01 1.932000000E+00
6.427859500E-01 4.378860000E+01 2.683300000E+01 1.929000000E+00
6.446140600E-01 4.386180000E+01 2.717100000E+01 1.923000000E+00
6.448209700E-01 4.389490000E+01 2.716600000E+01 1.923000000E+00
6.480450800E-01 4.418780000E+01 2.708900000E+01 1.913000000E+00
6.512853000E-01 4.438260000E+01 2.701200000E+01 1.904000000E+00
6.545417300E-01 4.455180000E+01 2.693400000E+01 1.894000000E+00
6.578144400E-01 4.470840000E+01 2.685700000E+01 1.885000000E+00
6.611035100E-01 4.485690000E+01 2.677900000E+01 1.875000000E+00
6.644090300E-01 4.499980000E+01 2.670100000E+01 1.866000000E+00
6.677310700E-01 4.513820000E+01 2.662300000E+01 1.857000000E+00
6.710697300E-01 4.527290000E+01 2.654500000E+01 1.848000000E+00
6.744250800E-01 4.540440000E+01 2.646600000E+01 1.838000000E+00
6.777972000E-01 4.553310000E+01 2.638800000E+01 1.829000000E+00
6.811861900E-01 4.565930000E+01 2.630900000E+01 1.820000000E+00
6.845921200E-01 4.578300000E+01 2.623000000E+01 1.811000000E+00
6.880150800E-01 4.590450000E+01 2.615100000E+01 1.802000000E+00
6.914551500E-01 4.602380000E+01 2.607200000E+01 1.793000000E+00
6.949124300E-01 4.614090000E+01 2.599300000E+01 1.784000000E+00
6.983869900E-01 4.625590000E+01 2.591400000E+01 1.775000000E+00
7.018789300E-01 4.636890000E+01 2.583400000E+01 1.766000000E+00
7.053883200E-01 4.647970000E+01 2.575500000E+01 1.758000000E+00
7.089152600E-01 4.658840000E+01 2.567500000E+01 1.749000000E+00
7.124598400E-01 4.669480000E+01 2.559600000E+01 1.740000000E+00
7.160221400E-01 4.679900000E+01 2.551600000E+01 1.732000000E+00
7.196022500E-01 4.690060000E+01 2.543600000E+01 1.723000000E+00
7.232002600E-01 4.699950000E+01 2.535600000E+01 1.714000000E+00
7.268162600E-01 4.709540000E+01 2.527600000E+01 1.706000000E+00
7.304503400E-01 4.718780000E+01 2.519700000E+01 1.697000000E+00
7.341026000E-01 4.727620000E+01 2.511700000E+01 1.689000000E+00
7.377731100E-01 4.735960000E+01 2.503600000E+01 1.681000000E+00
7.414619700E-01 4.743640000E+01 2.495600000E+01 1.672000000E+00
7.451692800E-01 4.750400000E+01 2.487600000E+01 1.664000000E+00
7.488951300E-01 4.755710000E+01 2.479600000E+01 1.656000000E+00
7.526396100E-01 4.758250000E+01 2.471600000E+01 1.647000000E+00
7.564028000E-01 4.752680000E+01 2.463600000E+01 1.639000000E+00
7.575935400E-01 4.744260000E+01 2.461100000E+01 1.637000000E+00
7.600065200E-01 4.750880000E+01 2.509500000E+01 1.631000000E+00
7.601848200E-01 4.753720000E+01 2.509200000E+01 1.631000000E+00
7.639857400E-01 4.786570000E+01 2.501200000E+01 1.623000000E+00
7.678056700E-01 4.806260000E+01 2.493300000E+01 1.615000000E+00
7.716447000E-01 4.822510000E+01 2.485400000E+01 1.607000000E+00
7.755029200E-01 4.837110000E+01 2.477500000E+01 1.599000000E+00
7.793804400E-01 4.850710000E+01 2.469500000E+01 1.591000000E+00
7.832773400E-01 4.863630000E+01 2.461600000E+01 1.583000000E+00
7.871937300E-01 4.876050000E+01 2.453700000E+01 1.575000000E+00
7.911296900E-01 4.888080000E+01 2.445800000E+01 1.567000000E+00
7.950853400E-01 4.899780000E+01 2.437900000E+01 1.559000000E+00
7.990607700E-01 4.911210000E+01 2.430000000E+01 1.552000000E+00
8.030560700E-01 4.922410000E+01 2.422100000E+01 1.544000000E+00
8.070713500E-01 4.933410000E+01 2.414100000E+01 1.536000000E+00
8.111067100E-01 4.944220000E+01 2.406300000E+01 1.529000000E+00
8.151622400E-01 4.954870000E+01 2.398400000E+01 1.521000000E+00
8.192380600E-01 4.965370000E+01 2.390500000E+01 1.513000000E+00
8.233342500E-01 4.975730000E+01 2.382600000E+01 1.506000000E+00
8.274509200E-01 4.985960000E+01 2.374700000E+01 1.498000000E+00
8.315881700E-01 4.996070000E+01 2.366800000E+01 1.491000000E+00
8.357461100E-01 5.006070000E+01 2.359000000E+01 1.484000000E+00
8.399248400E-01 5.015970000E+01 2.351100000E+01 1.476000000E+00
8.441244700E-01 5.025770000E+01 2.343300000E+01 1.469000000E+00
8.483450900E-01 5.035470000E+01 2.335400000E+01 1.461000000E+00
8.525868200E-01 5.045080000E+01 2.327600000E+01 1.454000000E+00
8.568497500E-01 5.054610000E+01 2.319700000E+01 1.447000000E+00
8.611340000E-01 5.064050000E+01 2.311900000E+01 1.440000000E+00
8.654396700E-01 5.073420000E+01 2.304100000E+01 1.433000000E+00
8.697668700E-01 5.082710000E+01 2.296300000E+01 1.425000000E+00
8.741157000E-01 5.091930000E+01 2.288400000E+01 1.418000000E+00
8.784862800E-01 5.101080000E+01 2.280600000E+01 1.411000000E+00
8.828787100E-01 5.110170000E+01 2.272800000E+01 1.404000000E+00
8.872931000E-01 5.119190000E+01 2.265100000E+01 1.397000000E+00
8.917295700E-01 5.128160000E+01 2.257300000E+01 1.390000000E+00
8.961882200E-01 5.137080000E+01 2.249500000E+01 1.383000000E+00
9.006691600E-01 5.145950000E+01 2.241700000E+01 1.377000000E+00
9.051725000E-01 5.154770000E+01 2.234000000E+01 1.370000000E+00
9.096983700E-01 5.163550000E+01 2.226200000E+01 1.363000000E+00
9.142468600E-01 5.172300000E+01 2.218500000E+01 1.356000000E+00
9.188180900E-01 5.181010000E+01 2.210800000E+01 1.349000000E+00
9.234121800E-01 5.189700000E+01 2.203100000E+01 1.343000000E+00
9.280292400E-01 5.198340000E+01 2.195300000E+01 1.336000000E+00
9.326693900E-01 5.206960000E+01 2.187500000E+01 1.329000000E+00
9.373327400E-01 5.215550000E+01 2.179700000E+01 1.323000000E+00
9.420194000E-01 5.224120000E+01 2.172000000E+01 1.316000000E+00
9.467295000E-01 5.232670000E+01 2.164300000E+01 1.310000000E+00
9.514631500E-01 5.241220000E+01 2.156500000E+01 1.303000000E+00
9.562204600E-01 5.249770000E+01 2.148800000E+01 1.297000000E+00
9.610015600E-01 5.258330000E+01 2.141100000E+01 1.290000000E+00
9.658065700E-01 5.266910000E+01 2.133400000E+01 1.284000000E+00
9.706356000E-01 5.275510000E+01 2.125700000E+01 1.277000000E+00
9.754887800E-01 5.284150000E+01 2.118100000E+01 1.271000000E+00
9.803662300E-01 5.292840000E+01 2.110400000E+01 1.265000000E+00
9.852680600E-01 5.301600000E+01 2.102800000E+01 1.258000000E+00
9.901944000E-01 5.310450000E+01 2.095200000E+01 1.252000000E+00
9.951453700E-01 5.319430000E+01 2.087600000E+01 1.246000000E+00
1.000121100E+00 5.328620000E+01 2.079900000E+01 1.240000000E+00
1.005121700E+00 5.337720000E+01 2.069600000E+01 1.234000000E+00
1.010147300E+00 5.344250000E+01 2.059300000E+01 1.227000000E+00
1.015198000E+00 5.350460000E+01 2.049000000E+01 1.221000000E+00
1.020274000E+00 5.356480000E+01 2.038800000E+01 1.215000000E+00
1.025375400E+00 5.362330000E+01 2.028600000E+01 1.209000000E+00
1.030502300E+00 5.368040000E+01 2.018500000E+01 1.203000000E+00
1.035654800E+00 5.373610000E+01 2.008400000E+01 1.197000000E+00
1.040833100E+00 5.379050000E+01 1.998400000E+01 1.191000000E+00
1.046037200E+00 5.384370000E+01 1.988400000E+01 1.185000000E+00
1.051267400E+00 5.389570000E+01 1.978500000E+01 1.179000000E+00
1.056523800E+00 5.395950000E+01 1.968600000E+01 1.174000000E+00
1.061806400E+00 5.400920000E+01 1.958700000E+01 1.168000000E+00
1.067115400E+00 5.405780000E+01 1.949000000E+01 1.162000000E+00
1.072451000E+00 5.410540000E+01 1.939200000E+01 1.156000000E+00
1.077813200E+00 5.415180000E+01 1.929600000E+01 1.150000000E+00
1.083202300E+00 5.419730000E+01 1.919900000E+01 1.145000000E+00
1.088618300E+00 5.424170000E+01 1.910300000E+01 1.139000000E+00
1.094061400E+00 5.428500000E+01 1.900700000E+01 1.133000000E+00
1.099531700E+00 5.432710000E+01 1.891100000E+01 1.128000000E+00
1.105029400E+00 5.436810000E+01 1.881600000E+01 1.122000000E+00
1.110554500E+00 5.440800000E+01 1.872100000E+01 1.116000000E+00
1.116107300E+00 5.444680000E+01 1.862700000E+01 1.111000000E+00
1.121687800E+00 5.448460000E+01 1.853300000E+01 1.105000000E+00
1.127296300E+00 5.452140000E+01 1.844000000E+01 1.100000000E+00
1.132932800E+00 5.455710000E+01 1.834700000E+01 1.094000000E+00
1.138597400E+00 5.459180000E+01 1.825500000E+01 1.089000000E+00
1.144290400E+00 5.462550000E+01 1.816300000E+01 1.084000000E+00
1.150011900E+00 5.465820000E+01 1.807100000E+01 1.078000000E+00
1.155761900E+00 5.468990000E+01 1.798100000E+01 1.073000000E+00
1.161540700E+00 5.472070000E+01 1.789000000E+01 1.067000000E+00
1.167348400E+00 5.475050000E+01 1.780000000E+01 1.062000000E+00
1.173185200E+00 5.477930000E+01 1.771100000E+01 1.057000000E+00
1.179051100E+00 5.480730000E+01 1.762200000E+01 1.052000000E+00
1.184946400E+00 5.483430000E+01 1.753300000E+01 1.046000000E+00
1.190871100E+00 5.486040000E+01 1.744600000E+01 1.041000000E+00
1.196825400E+00 5.488560000E+01 1.735800000E+01 1.036000000E+00
1.202809600E+00 5.491000000E+01 1.727100000E+01 1.031000000E+00
1.208823600E+00 5.493340000E+01 1.718500000E+01 1.026000000E+00
1.214867700E+00 5.495600000E+01 1.709900000E+01 1.021000000E+00
1.220942100E+00 5.497770000E+01 1.701300000E+01 1.015000000E+00
1.227046800E+00 5.499860000E+01 1.692800000E+01 1.010000000E+00
1.233182000E+00 5.501860000E+01 1.684400000E+01 1.005000000E+00
1.239347900E+00 5.503780000E+01 1.675900000E+01 1.000000000E+00
1.245544700E+00 5.505620000E+01 1.667600000E+01 9.954000000E-01
1.251772400E+00 5.507380000E+01 1.659300000E+01 9.905000000E-01
1.258031200E+00 5.509060000E+01 1.651000000E+01 9.855000000E-01
1.264321400E+00 5.510660000E+01 1.642800000E+01 9.806000000E-01
1.270643000E+00 5.512190000E+01 1.634700000E+01 9.758000000E-01
1.276996200E+00 5.513640000E+01 1.626500000E+01 9.709000000E-01
1.283381200E+00 5.515020000E+01 1.618500000E+01 9.661000000E-01
1.289798100E+00 5.516310000E+01 1.610400000E+01 9.613000000E-01
1.296247100E+00 5.517530000E+01 1.602400000E+01 9.565000000E-01
1.302728300E+00 5.518660000E+01 1.594400000E+01 9.517000000E-01
