# Data retrieved from physics.nist.gov 03/01/2021
# Element, Be  (Z = 4) 
# Atomic weight, g mol-1 = 9.012180 
# Nominal density, g cm-3 =  1.8450 
# Relativistic correction estimate f_rel(5CL),  e atom-1 =  -6.0000E-04 
# Nuclear Thomson correction f_NT, e atom-1 =  -9.7394E-04 
#    E [keV]      f1 [e atom-1]      f2 [e atom-1]    Wavelength [nm] 
8.251600000E-03 1.558640000E+00 0.000000000E+00 1.503000000E+02
8.377900000E-03 1.509470000E+00 0.000000000E+00 1.480000000E+02
8.411580000E-03 1.457940000E+00 0.000000000E+00 1.474000000E+02
8.462100000E-03 1.502660000E+00 9.731800000E-02 1.465000000E+02
8.588400000E-03 1.537560000E+00 1.028600000E-01 1.444000000E+02
1.069000000E-02 1.584800000E+00 2.124700000E-01 1.160000000E+02
1.142761000E-02 1.602580000E+00 2.469400000E-01 1.085000000E+02
1.221612000E-02 1.625460000E+00 2.787000000E-01 1.015000000E+02
1.305903000E-02 1.652690000E+00 3.066000000E-01 9.494000000E+01
1.396010000E-02 1.683180000E+00 3.298800000E-01 8.881000000E+01
1.492335000E-02 1.715750000E+00 3.482000000E-01 8.308000000E+01
1.595306000E-02 1.749240000E+00 3.615100000E-01 7.772000000E+01
1.705382000E-02 1.782630000E+00 3.700600000E-01 7.270000000E+01
1.823053000E-02 1.815060000E+00 3.742600000E-01 6.801000000E+01
1.948844000E-02 1.845850000E+00 3.746300000E-01 6.362000000E+01
2.083314000E-02 1.874510000E+00 3.717300000E-01 5.951000000E+01
2.227063000E-02 1.900680000E+00 3.661500000E-01 5.567000000E+01
2.380730000E-02 1.924120000E+00 3.584100000E-01 5.208000000E+01
2.545001000E-02 1.944680000E+00 3.490000000E-01 4.872000000E+01
2.720606000E-02 1.962300000E+00 3.383300000E-01 4.557000000E+01
2.908327000E-02 1.976920000E+00 3.267700000E-01 4.263000000E+01
3.109002000E-02 1.988500000E+00 3.146100000E-01 3.988000000E+01
3.323523000E-02 1.997000000E+00 3.020800000E-01 3.731000000E+01
3.552846000E-02 2.002340000E+00 2.893300000E-01 3.490000000E+01
3.797993000E-02 2.004320000E+00 2.764200000E-01 3.264000000E+01
4.060054000E-02 2.002670000E+00 2.635100000E-01 3.054000000E+01
4.340198000E-02 1.997060000E+00 2.507000000E-01 2.857000000E+01
4.639671000E-02 1.987040000E+00 2.380700000E-01 2.672000000E+01
4.959809000E-02 1.972020000E+00 2.256900000E-01 2.500000000E+01
5.302035000E-02 1.951200000E+00 2.136000000E-01 2.338000000E+01
5.667876000E-02 1.923460000E+00 2.018400000E-01 2.187000000E+01
6.058959000E-02 1.887290000E+00 1.904400000E-01 2.046000000E+01
6.477028000E-02 1.840540000E+00 1.794100000E-01 1.914000000E+01
6.923942000E-02 1.780090000E+00 1.687600000E-01 1.791000000E+01
7.401695000E-02 1.701240000E+00 1.585100000E-01 1.675000000E+01
7.912411000E-02 1.596470000E+00 1.486500000E-01 1.567000000E+01
8.458368000E-02 1.452900000E+00 1.392100000E-01 1.466000000E+01
9.041995000E-02 1.245790000E+00 1.301700000E-01 1.371000000E+01
9.665893000E-02 9.187190000E-01 1.215500000E-01 1.283000000E+01
1.033284000E-01 2.919530000E-01 1.133300000E-01 1.200000000E+01
1.087800000E-01 -1.100590000E+00 1.072800000E-01 1.140000000E+01
1.104581000E-01 -2.811380000E+00 1.055300000E-01 1.122000000E+01
1.108890000E-01 -4.797320000E+00 1.050900000E-01 1.118000000E+01
1.115550000E-01 -2.704250000E+00 4.073200000E+00 1.111000000E+01
1.132200000E-01 -8.677050000E-01 4.007000000E+00 1.095000000E+01
1.180797000E-01 7.439080000E-01 3.824900000E+00 1.050000000E+01
1.262272000E-01 1.850310000E+00 3.550800000E+00 9.822000000E+00
1.349368000E-01 2.503340000E+00 3.285000000E+00 9.188000000E+00
1.442475000E-01 2.958290000E+00 3.027900000E+00 8.595000000E+00
1.542005000E-01 3.296190000E+00 2.781300000E+00 8.040000000E+00
1.648404000E-01 3.554650000E+00 2.546100000E+00 7.521000000E+00
1.762144000E-01 3.754640000E+00 2.323700000E+00 7.036000000E+00
1.883732000E-01 3.909900000E+00 2.114900000E+00 6.582000000E+00
2.013709000E-01 4.030030000E+00 1.919900000E+00 6.157000000E+00
2.152655000E-01 4.122120000E+00 1.738900000E+00 5.760000000E+00
2.301188000E-01 4.191620000E+00 1.571500000E+00 5.388000000E+00
2.459970000E-01 4.242850000E+00 1.417300000E+00 5.040000000E+00
2.629708000E-01 4.279280000E+00 1.275800000E+00 4.715000000E+00
2.811158000E-01 4.303760000E+00 1.146400000E+00 4.410000000E+00
3.005128000E-01 4.318610000E+00 1.028500000E+00 4.126000000E+00
3.212482000E-01 4.325760000E+00 9.211700000E-01 3.859000000E+00
3.434143000E-01 4.326840000E+00 8.238600000E-01 3.610000000E+00
3.671099000E-01 4.323140000E+00 7.357900000E-01 3.377000000E+00
3.924405000E-01 4.315780000E+00 6.562600000E-01 3.159000000E+00
4.195189000E-01 4.305670000E+00 5.845900000E-01 2.955000000E+00
4.484657000E-01 4.293560000E+00 5.201100000E-01 2.765000000E+00
4.794098000E-01 4.280050000E+00 4.621200000E-01 2.586000000E+00
5.124891000E-01 4.265570000E+00 4.100400000E-01 2.419000000E+00
5.478508000E-01 4.250500000E+00 3.633900000E-01 2.263000000E+00
5.856525000E-01 4.235170000E+00 3.216800000E-01 2.117000000E+00
6.260625000E-01 4.219850000E+00 2.844700000E-01 1.980000000E+00
6.692609000E-01 4.204760000E+00 2.513400000E-01 1.853000000E+00
7.154399000E-01 4.190080000E+00 2.218700000E-01 1.733000000E+00
7.648052000E-01 4.175920000E+00 1.957200000E-01 1.621000000E+00
8.175768000E-01 4.162400000E+00 1.725400000E-01 1.516000000E+00
8.739896000E-01 4.149570000E+00 1.520100000E-01 1.419000000E+00
9.342948000E-01 4.137490000E+00 1.338500000E-01 1.327000000E+00
9.987612000E-01 4.126180000E+00 1.178200000E-01 1.241000000E+00
1.067676000E+00 4.115860000E+00 1.029700000E-01 1.161000000E+00
1.141345000E+00 4.105880000E+00 8.997700000E-02 1.086000000E+00
1.220098000E+00 4.096450000E+00 7.862500000E-02 1.016000000E+00
1.304285000E+00 4.087670000E+00 6.870500000E-02 9.506000000E-01
1.394281000E+00 4.079550000E+00 6.003700000E-02 8.892000000E-01
1.490486000E+00 4.072070000E+00 5.246300000E-02 8.318000000E-01
1.593329000E+00 4.065210000E+00 4.584400000E-02 7.781000000E-01
1.703269000E+00 4.058940000E+00 4.006000000E-02 7.279000000E-01
1.820795000E+00 4.053240000E+00 3.500600000E-02 6.809000000E-01
1.946430000E+00 4.048050000E+00 3.058900000E-02 6.370000000E-01
2.080733000E+00 4.043360000E+00 2.673000000E-02 5.959000000E-01
2.224304000E+00 4.039090000E+00 2.320400000E-02 5.574000000E-01
2.377781000E+00 4.035180000E+00 2.013900000E-02 5.214000000E-01
2.541848000E+00 4.031620000E+00 1.748000000E-02 4.878000000E-01
2.717235000E+00 4.028390000E+00 1.517100000E-02 4.563000000E-01
2.904724000E+00 4.025510000E+00 1.316800000E-02 4.268000000E-01
3.105150000E+00 4.023060000E+00 1.138800000E-02 3.993000000E-01
3.319406000E+00 4.020630000E+00 9.815100000E-03 3.735000000E-01
3.548445000E+00 4.018440000E+00 8.459600000E-03 3.494000000E-01
3.793288000E+00 4.016460000E+00 7.291400000E-03 3.269000000E-01
4.055024000E+00 4.014680000E+00 6.283500000E-03 3.058000000E-01
4.334821000E+00 4.013080000E+00 5.414800000E-03 2.860000000E-01
4.633924000E+00 4.011650000E+00 4.666200000E-03 2.676000000E-01
4.953664000E+00 4.010370000E+00 4.021100000E-03 2.503000000E-01
5.295467000E+00 4.009230000E+00 3.465100000E-03 2.341000000E-01
5.660855000E+00 4.008200000E+00 2.986100000E-03 2.190000000E-01
6.051453000E+00 4.007290000E+00 2.573200000E-03 2.049000000E-01
6.469004000E+00 4.006470000E+00 2.217500000E-03 1.917000000E-01
6.915365000E+00 4.005740000E+00 1.910900000E-03 1.793000000E-01
7.392525000E+00 4.005100000E+00 1.646700000E-03 1.677000000E-01
7.902609000E+00 4.004520000E+00 1.419100000E-03 1.569000000E-01
8.447890000E+00 4.004010000E+00 1.222900000E-03 1.468000000E-01
9.030794000E+00 4.003560000E+00 1.052500000E-03 1.373000000E-01
9.653919000E+00 4.003160000E+00 9.017700000E-04 1.284000000E-01
1.032004000E+01 4.002800000E+00 7.726400000E-04 1.201000000E-01
1.103212000E+01 4.002480000E+00 6.620000000E-04 1.124000000E-01
1.179334000E+01 4.002190000E+00 5.672100000E-04 1.051000000E-01
1.260708000E+01 4.001940000E+00 4.859900000E-04 9.834000000E-02
1.347697000E+01 4.001710000E+00 4.164000000E-04 9.200000000E-02
1.440688000E+01 4.001510000E+00 3.567700000E-04 8.606000000E-02
1.540095000E+01 4.001340000E+00 3.056900000E-04 8.050000000E-02
1.646362000E+01 4.001180000E+00 2.619200000E-04 7.531000000E-02
1.759961000E+01 4.001040000E+00 2.244100000E-04 7.045000000E-02
1.881398000E+01 4.000920000E+00 1.922800000E-04 6.590000000E-02
2.011215000E+01 4.000810000E+00 1.647500000E-04 6.165000000E-02
2.149988000E+01 4.000720000E+00 1.411600000E-04 5.767000000E-02
2.298338000E+01 4.000630000E+00 1.209400000E-04 5.395000000E-02
2.456923000E+01 4.000560000E+00 1.036300000E-04 5.046000000E-02
2.626450000E+01 4.000490000E+00 8.878800000E-05 4.721000000E-02
2.807676000E+01 4.000430000E+00 7.594000000E-05 4.416000000E-02
3.001405000E+01 4.000380000E+00 6.491500000E-05 4.131000000E-02
3.208502000E+01 4.000340000E+00 5.549000000E-05 3.864000000E-02
3.429889000E+01 4.000300000E+00 4.743300000E-05 3.615000000E-02
3.666551000E+01 4.000260000E+00 4.054600000E-05 3.381000000E-02
3.919543000E+01 4.000230000E+00 3.466000000E-05 3.163000000E-02
4.189992000E+01 4.000200000E+00 2.962800000E-05 2.959000000E-02
4.479101000E+01 4.000180000E+00 2.532600000E-05 2.768000000E-02
4.788159000E+01 4.000160000E+00 2.164900000E-05 2.589000000E-02
5.118542000E+01 4.000140000E+00 1.851200000E-05 2.422000000E-02
5.471721000E+01 4.000120000E+00 1.584500000E-05 2.266000000E-02
5.849270000E+01 4.000110000E+00 1.356300000E-05 2.120000000E-02
6.252870000E+01 4.000090000E+00 1.161000000E-05 1.983000000E-02
6.684318000E+01 4.000080000E+00 9.937400000E-06 1.855000000E-02
7.145536000E+01 4.000070000E+00 8.506100000E-06 1.735000000E-02
7.638578000E+01 4.000060000E+00 7.281000000E-06 1.623000000E-02
8.165640000E+01 4.000060000E+00 6.232300000E-06 1.518000000E-02
8.729069000E+01 4.000050000E+00 5.334700000E-06 1.420000000E-02
9.331374000E+01 4.000040000E+00 4.566400000E-06 1.329000000E-02
9.975239000E+01 4.000040000E+00 3.908700000E-06 1.243000000E-02
1.066353000E+02 4.000030000E+00 3.345700000E-06 1.163000000E-02
1.139931000E+02 4.000030000E+00 2.863900000E-06 1.088000000E-02
1.218587000E+02 4.000030000E+00 2.451400000E-06 1.017000000E-02
1.302669000E+02 4.000020000E+00 2.098400000E-06 9.518000000E-03
1.392553000E+02 4.000020000E+00 1.796200000E-06 8.903000000E-03
1.488640000E+02 4.000020000E+00 1.537500000E-06 8.329000000E-03
1.591356000E+02 4.000020000E+00 1.316100000E-06 7.791000000E-03
1.701159000E+02 4.000010000E+00 1.126500000E-06 7.288000000E-03
1.818539000E+02 4.000010000E+00 9.642800000E-07 6.818000000E-03
1.944018000E+02 4.000010000E+00 8.254100000E-07 6.378000000E-03
2.078156000E+02 4.000010000E+00 7.065400000E-07 5.966000000E-03
2.221548000E+02 4.000010000E+00 6.047900000E-07 5.581000000E-03
2.374835000E+02 4.000010000E+00 5.177000000E-07 5.221000000E-03
2.538699000E+02 4.000010000E+00 4.431400000E-07 4.884000000E-03
2.713869000E+02 4.000010000E+00 3.793300000E-07 4.569000000E-03
2.901126000E+02 4.000000000E+00 3.247000000E-07 4.274000000E-03
3.101304000E+02 4.000000000E+00 2.779400000E-07 3.998000000E-03
3.315294000E+02 4.000000000E+00 2.379200000E-07 3.740000000E-03
3.544049000E+02 4.000000000E+00 2.036600000E-07 3.498000000E-03
3.788588000E+02 4.000000000E+00 1.743300000E-07 3.273000000E-03
4.050001000E+02 4.000000000E+00 1.492300000E-07 3.061000000E-03
4.329451000E+02 4.000000000E+00 1.277400000E-07 2.864000000E-03
