# Data retrieved from physics.nist.gov 03/01/2021
# Element, Br  (Z = 35) 
# Atomic weight, g mol-1 = 79.90400 
# Nominal density, g cm-3 =  3.1100 
# Relativistic correction estimate f_rel(5CL),  e atom-1 =  -1.3860E-01 
# Nuclear Thomson correction f_NT, e atom-1 =  -8.4102E-03 
#    E [keV]      f1 [e atom-1]      f2 [e atom-1]    Wavelength [nm] 
1.069000000E-02 7.926540000E+00 0.000000000E+00 1.160000000E+02
1.142761000E-02 7.919240000E+00 0.000000000E+00 1.085000000E+02
1.221612000E-02 7.910880000E+00 0.000000000E+00 1.015000000E+02
1.305903000E-02 7.901310000E+00 0.000000000E+00 9.494000000E+01
1.396010000E-02 7.890340000E+00 0.000000000E+00 8.881000000E+01
1.492335000E-02 7.877770000E+00 0.000000000E+00 8.308000000E+01
1.595306000E-02 7.863350000E+00 0.000000000E+00 7.772000000E+01
1.705382000E-02 7.846800000E+00 0.000000000E+00 7.270000000E+01
1.823053000E-02 7.827810000E+00 0.000000000E+00 6.801000000E+01
1.948844000E-02 7.805990000E+00 0.000000000E+00 6.362000000E+01
2.083314000E-02 7.780900000E+00 0.000000000E+00 5.951000000E+01
2.227063000E-02 7.752020000E+00 0.000000000E+00 5.567000000E+01
2.380730000E-02 7.718750000E+00 0.000000000E+00 5.208000000E+01
2.545001000E-02 7.680360000E+00 0.000000000E+00 4.872000000E+01
2.720606000E-02 7.636020000E+00 0.000000000E+00 4.557000000E+01
2.908327000E-02 7.584690000E+00 0.000000000E+00 4.263000000E+01
3.109002000E-02 7.525150000E+00 0.000000000E+00 3.988000000E+01
3.323523000E-02 7.455920000E+00 0.000000000E+00 3.731000000E+01
3.552846000E-02 7.375170000E+00 0.000000000E+00 3.490000000E+01
3.797993000E-02 7.280660000E+00 0.000000000E+00 3.264000000E+01
4.060054000E-02 7.169510000E+00 0.000000000E+00 3.054000000E+01
4.340198000E-02 7.038070000E+00 0.000000000E+00 2.857000000E+01
4.639671000E-02 6.881510000E+00 0.000000000E+00 2.672000000E+01
4.959809000E-02 6.693230000E+00 0.000000000E+00 2.500000000E+01
5.302035000E-02 6.463820000E+00 0.000000000E+00 2.338000000E+01
5.667876000E-02 6.178820000E+00 0.000000000E+00 2.187000000E+01
6.058959000E-02 5.813220000E+00 0.000000000E+00 2.046000000E+01
6.477028000E-02 5.311150000E+00 0.000000000E+00 1.914000000E+01
6.762000000E-02 4.819390000E+00 0.000000000E+00 1.834000000E+01
6.869800000E-02 4.492100000E+00 0.000000000E+00 1.805000000E+01
6.893100000E-02 4.312590000E+00 0.000000000E+00 1.799000000E+01
6.923942000E-02 4.345620000E+00 2.811600000E-01 1.791000000E+01
6.934500000E-02 4.351270000E+00 2.847900000E-01 1.788000000E+01
6.974950000E-02 4.304050000E+00 2.991000000E-01 1.778000000E+01
7.002990000E-02 4.188990000E+00 3.093900000E-01 1.770000000E+01
7.038000000E-02 4.229500000E+00 5.090900000E-01 1.762000000E+01
7.045050000E-02 4.234370000E+00 5.134100000E-01 1.760000000E+01
7.150200000E-02 4.183780000E+00 5.819300000E-01 1.734000000E+01
7.401695000E-02 3.891550000E+00 7.794900000E-01 1.675000000E+01
7.912411000E-02 3.198340000E+00 1.353200000E+00 1.567000000E+01
8.458368000E-02 2.509870000E+00 2.183100000E+00 1.466000000E+01
9.041995000E-02 1.917260000E+00 3.270300000E+00 1.371000000E+01
9.665893000E-02 1.508310000E+00 4.590800000E+00 1.283000000E+01
1.033284000E-01 1.356410000E+00 6.088100000E+00 1.200000000E+01
1.104581000E-01 1.509120000E+00 7.682800000E+00 1.122000000E+01
1.180797000E-01 1.982110000E+00 9.284600000E+00 1.050000000E+01
1.262272000E-01 2.759140000E+00 1.080600000E+01 9.822000000E+00
1.349368000E-01 3.796750000E+00 1.217100000E+01 9.188000000E+00
1.442475000E-01 5.030810000E+00 1.332500000E+01 8.595000000E+00
1.542005000E-01 6.381040000E+00 1.423300000E+01 8.040000000E+00
1.648404000E-01 7.744330000E+00 1.488200000E+01 7.521000000E+00
1.762144000E-01 8.902190000E+00 1.527300000E+01 7.036000000E+00
1.778700000E-01 8.996920000E+00 1.530800000E+01 6.970000000E+00
1.805925000E-01 8.936020000E+00 1.535500000E+01 6.865000000E+00
1.813185000E-01 8.594610000E+00 1.536600000E+01 6.838000000E+00
1.824075000E-01 9.110300000E+00 1.619600000E+01 6.797000000E+00
1.851300000E-01 9.719760000E+00 1.625300000E+01 6.697000000E+00
1.855140000E-01 9.778470000E+00 1.626000000E+01 6.683000000E+00
1.883732000E-01 1.008110000E+01 1.630800000E+01 6.582000000E+00
1.891107000E-01 1.001160000E+01 1.631800000E+01 6.556000000E+00
1.902465000E-01 1.034750000E+01 1.668500000E+01 6.517000000E+00
1.930860000E-01 1.088330000E+01 1.673000000E+01 6.421000000E+00
2.013709000E-01 1.203780000E+01 1.681200000E+01 6.157000000E+00
2.152655000E-01 1.365650000E+01 1.680900000E+01 5.760000000E+00
2.301188000E-01 1.511210000E+01 1.664900000E+01 5.388000000E+00
2.459970000E-01 1.635440000E+01 1.635200000E+01 5.040000000E+00
2.513700000E-01 1.664050000E+01 1.623100000E+01 4.932000000E+00
2.552175000E-01 1.663930000E+01 1.613900000E+01 4.858000000E+00
2.562435000E-01 1.636410000E+01 1.611400000E+01 4.839000000E+00
2.577825000E-01 1.683360000E+01 1.676800000E+01 4.810000000E+00
2.616300000E-01 1.742540000E+01 1.667600000E+01 4.739000000E+00
2.629708000E-01 1.757480000E+01 1.664300000E+01 4.715000000E+00
2.811158000E-01 1.910910000E+01 1.617100000E+01 4.410000000E+00
3.005128000E-01 2.038810000E+01 1.561300000E+01 4.126000000E+00
3.212482000E-01 2.151990000E+01 1.498100000E+01 3.859000000E+00
3.434143000E-01 2.252200000E+01 1.429700000E+01 3.610000000E+00
3.671099000E-01 2.340340000E+01 1.357800000E+01 3.377000000E+00
3.924405000E-01 2.417230000E+01 1.284100000E+01 3.159000000E+00
4.195189000E-01 2.483640000E+01 1.209900000E+01 2.955000000E+00
4.484657000E-01 2.540360000E+01 1.136200000E+01 2.765000000E+00
4.794098000E-01 2.588190000E+01 1.063800000E+01 2.586000000E+00
5.124891000E-01 2.627850000E+01 9.934000000E+00 2.419000000E+00
5.478508000E-01 2.660730000E+01 9.255200000E+00 2.263000000E+00
5.856525000E-01 2.686540000E+01 8.604700000E+00 2.117000000E+00
6.260625000E-01 2.705670000E+01 7.985100000E+00 1.980000000E+00
6.692609000E-01 2.718950000E+01 7.397700000E+00 1.853000000E+00
7.154399000E-01 2.726710000E+01 6.843200000E+00 1.733000000E+00
7.648052000E-01 2.729130000E+01 6.320900000E+00 1.621000000E+00
8.175768000E-01 2.726210000E+01 5.829700000E+00 1.516000000E+00
8.739896000E-01 2.717320000E+01 5.370300000E+00 1.419000000E+00
9.000000000E-01 2.745060000E+01 5.178600000E+00 1.378000000E+00
9.045000000E-01 2.744120000E+01 5.146700000E+00 1.371000000E+00
9.090225000E-01 2.743150000E+01 5.114900000E+00 1.364000000E+00
9.135676100E-01 2.742150000E+01 5.083200000E+00 1.357000000E+00
9.181354500E-01 2.741110000E+01 5.051800000E+00 1.350000000E+00
9.227261300E-01 2.740040000E+01 5.020600000E+00 1.344000000E+00
9.273397600E-01 2.738930000E+01 4.989500000E+00 1.337000000E+00
9.319764600E-01 2.737780000E+01 4.958600000E+00 1.330000000E+00
9.366363400E-01 2.736610000E+01 4.927900000E+00 1.324000000E+00
9.413195200E-01 2.735390000E+01 4.897400000E+00 1.317000000E+00
9.460261200E-01 2.734140000E+01 4.867000000E+00 1.311000000E+00
9.507562500E-01 2.732850000E+01 4.836800000E+00 1.304000000E+00
9.555100300E-01 2.731530000E+01 4.806800000E+00 1.298000000E+00
9.602875800E-01 2.730170000E+01 4.777000000E+00 1.291000000E+00
9.650890200E-01 2.728770000E+01 4.747400000E+00 1.285000000E+00
9.699144600E-01 2.727330000E+01 4.718000000E+00 1.278000000E+00
9.747640400E-01 2.725860000E+01 4.688700000E+00 1.272000000E+00
9.796378600E-01 2.724340000E+01 4.659600000E+00 1.266000000E+00
9.845360500E-01 2.722790000E+01 4.630700000E+00 1.259000000E+00
9.894587300E-01 2.721190000E+01 4.601900000E+00 1.253000000E+00
9.944060200E-01 2.719560000E+01 4.573400000E+00 1.247000000E+00
9.993780500E-01 2.717880000E+01 4.545000000E+00 1.241000000E+00
1.004374900E+00 2.717230000E+01 4.510800000E+00 1.234000000E+00
1.009396800E+00 2.716490000E+01 4.476100000E+00 1.228000000E+00
1.014443800E+00 2.715530000E+01 4.441600000E+00 1.222000000E+00
1.019516000E+00 2.714370000E+01 4.407500000E+00 1.216000000E+00
1.024613600E+00 2.713050000E+01 4.373600000E+00 1.210000000E+00
1.029736700E+00 2.711570000E+01 4.339600000E+00 1.204000000E+00
1.034885300E+00 2.709960000E+01 4.305800000E+00 1.198000000E+00
1.040059800E+00 2.708210000E+01 4.272200000E+00 1.192000000E+00
1.045260100E+00 2.706340000E+01 4.239000000E+00 1.186000000E+00
1.050486400E+00 2.704350000E+01 4.206000000E+00 1.180000000E+00
1.055738800E+00 2.702250000E+01 4.173300000E+00 1.174000000E+00
1.061017500E+00 2.700050000E+01 4.140900000E+00 1.169000000E+00
1.066322600E+00 2.697750000E+01 4.108800000E+00 1.163000000E+00
1.071654200E+00 2.695340000E+01 4.076900000E+00 1.157000000E+00
1.077012500E+00 2.692840000E+01 4.045400000E+00 1.151000000E+00
1.082397500E+00 2.690240000E+01 4.014100000E+00 1.145000000E+00
1.087809500E+00 2.687540000E+01 3.983000000E+00 1.140000000E+00
1.093248600E+00 2.684750000E+01 3.952300000E+00 1.134000000E+00
1.098714800E+00 2.681870000E+01 3.921700000E+00 1.128000000E+00
1.104208400E+00 2.678890000E+01 3.891500000E+00 1.123000000E+00
1.109729400E+00 2.675820000E+01 3.861500000E+00 1.117000000E+00
1.115278100E+00 2.672660000E+01 3.831800000E+00 1.112000000E+00
1.120854500E+00 2.669400000E+01 3.802300000E+00 1.106000000E+00
1.126458700E+00 2.666040000E+01 3.773100000E+00 1.101000000E+00
1.132091000E+00 2.662580000E+01 3.744100000E+00 1.095000000E+00
1.137751500E+00 2.659030000E+01 3.715300000E+00 1.090000000E+00
1.143440200E+00 2.655380000E+01 3.686900000E+00 1.084000000E+00
1.149157400E+00 2.651620000E+01 3.658600000E+00 1.079000000E+00
1.154903200E+00 2.647750000E+01 3.630600000E+00 1.074000000E+00
1.160677700E+00 2.643780000E+01 3.602800000E+00 1.068000000E+00
1.166481100E+00 2.639700000E+01 3.575300000E+00 1.063000000E+00
1.172313500E+00 2.635510000E+01 3.548000000E+00 1.058000000E+00
1.178175100E+00 2.631200000E+01 3.520900000E+00 1.052000000E+00
1.184066000E+00 2.626770000E+01 3.494100000E+00 1.047000000E+00
1.189986300E+00 2.622220000E+01 3.467500000E+00 1.042000000E+00
1.195936200E+00 2.617540000E+01 3.441100000E+00 1.037000000E+00
1.201915900E+00 2.612730000E+01 3.414900000E+00 1.032000000E+00
1.207925500E+00 2.607780000E+01 3.389000000E+00 1.026000000E+00
1.213965100E+00 2.602690000E+01 3.363300000E+00 1.021000000E+00
1.220035000E+00 2.597460000E+01 3.337700000E+00 1.016000000E+00
1.226135100E+00 2.592070000E+01 3.312400000E+00 1.011000000E+00
1.232265800E+00 2.586530000E+01 3.287400000E+00 1.006000000E+00
1.238427100E+00 2.580820000E+01 3.262500000E+00 1.001000000E+00
1.244619300E+00 2.574940000E+01 3.237800000E+00 9.962000000E-01
1.250842400E+00 2.568890000E+01 3.213400000E+00 9.912000000E-01
1.257096600E+00 2.562640000E+01 3.189100000E+00 9.863000000E-01
1.263382100E+00 2.556200000E+01 3.165100000E+00 9.814000000E-01
1.269699000E+00 2.549560000E+01 3.141200000E+00 9.765000000E-01
1.276047500E+00 2.542700000E+01 3.117600000E+00 9.716000000E-01
1.282427700E+00 2.535620000E+01 3.094100000E+00 9.668000000E-01
1.288839900E+00 2.528300000E+01 3.070900000E+00 9.620000000E-01
1.295284000E+00 2.520720000E+01 3.047800000E+00 9.572000000E-01
1.301760500E+00 2.512890000E+01 3.024000000E+00 9.524000000E-01
1.308269300E+00 2.504770000E+01 3.000400000E+00 9.477000000E-01
1.314810600E+00 2.496340000E+01 2.976900000E+00 9.430000000E-01
1.321384700E+00 2.487610000E+01 2.953200000E+00 9.383000000E-01
1.327991600E+00 2.478530000E+01 2.929500000E+00 9.336000000E-01
1.334631600E+00 2.469080000E+01 2.906100000E+00 9.290000000E-01
1.341304700E+00 2.459250000E+01 2.882800000E+00 9.244000000E-01
1.348011200E+00 2.449010000E+01 2.859800000E+00 9.198000000E-01
1.354751300E+00 2.438320000E+01 2.837000000E+00 9.152000000E-01
1.361525000E+00 2.427160000E+01 2.814400000E+00 9.106000000E-01
1.368332700E+00 2.415490000E+01 2.792000000E+00 9.061000000E-01
1.375174300E+00 2.403260000E+01 2.769900000E+00 9.016000000E-01
1.382050200E+00 2.390440000E+01 2.747900000E+00 8.971000000E-01
1.388960500E+00 2.376960000E+01 2.726100000E+00 8.926000000E-01
1.395905300E+00 2.362770000E+01 2.704600000E+00 8.882000000E-01
1.402884800E+00 2.347810000E+01 2.683200000E+00 8.838000000E-01
1.409899200E+00 2.331980000E+01 2.662000000E+00 8.794000000E-01
1.416948700E+00 2.315210000E+01 2.641100000E+00 8.750000000E-01
1.424033500E+00 2.297390000E+01 2.620300000E+00 8.707000000E-01
1.431153600E+00 2.278390000E+01 2.599700000E+00 8.663000000E-01
1.438309400E+00 2.258060000E+01 2.579300000E+00 8.620000000E-01
1.445500900E+00 2.236230000E+01 2.559100000E+00 8.577000000E-01
1.452728400E+00 2.212680000E+01 2.539000000E+00 8.535000000E-01
1.459992100E+00 2.187150000E+01 2.519200000E+00 8.492000000E-01
1.467292000E+00 2.159290000E+01 2.499500000E+00 8.450000000E-01
1.474628500E+00 2.128690000E+01 2.480000000E+00 8.408000000E-01
1.482001600E+00 2.094780000E+01 2.460700000E+00 8.366000000E-01
1.489411700E+00 2.056810000E+01 2.441500000E+00 8.324000000E-01
1.496858700E+00 2.013760000E+01 2.422600000E+00 8.283000000E-01
1.504343000E+00 1.964100000E+01 2.403800000E+00 8.242000000E-01
1.511864700E+00 1.905530000E+01 2.385200000E+00 8.201000000E-01
1.519424000E+00 1.834190000E+01 2.366700000E+00 8.160000000E-01
1.527021200E+00 1.742950000E+01 2.348400000E+00 8.119000000E-01
1.534656300E+00 1.615880000E+01 2.330300000E+00 8.079000000E-01
1.542329500E+00 1.402020000E+01 2.312300000E+00 8.039000000E-01
1.549731100E+00 2.838620000E+00 2.295200000E+00 8.000000000E-01
1.550041200E+00 2.156320000E+00 1.145400000E+01 7.999000000E-01
1.550069000E+00 2.680370000E+00 1.145400000E+01 7.999000000E-01
1.557791400E+00 1.374860000E+01 1.136300000E+01 7.959000000E-01
1.565580400E+00 1.551720000E+01 1.127200000E+01 7.919000000E-01
1.573408300E+00 1.635320000E+01 1.118200000E+01 7.880000000E-01
1.581275300E+00 1.665650000E+01 1.109300000E+01 7.841000000E-01
1.589181700E+00 1.627990000E+01 1.100400000E+01 7.802000000E-01
1.595819600E+00 1.157610000E+01 1.093100000E+01 7.769000000E-01
1.596180300E+00 1.152740000E+01 1.545000000E+01 7.768000000E-01
1.597127600E+00 1.423780000E+01 1.543500000E+01 7.763000000E-01
1.605113200E+00 1.777600000E+01 1.531300000E+01 7.724000000E-01
1.613138800E+00 1.913750000E+01 1.519100000E+01 7.686000000E-01
1.621204500E+00 2.008860000E+01 1.507100000E+01 7.648000000E-01
1.629310500E+00 2.084130000E+01 1.495100000E+01 7.610000000E-01
1.637457100E+00 2.147090000E+01 1.483200000E+01 7.572000000E-01
1.645644300E+00 2.201390000E+01 1.471500000E+01 7.534000000E-01
1.653872600E+00 2.249140000E+01 1.459800000E+01 7.497000000E-01
1.662141900E+00 2.291660000E+01 1.448200000E+01 7.459000000E-01
1.670452600E+00 2.329860000E+01 1.436700000E+01 7.422000000E-01
1.678804900E+00 2.364360000E+01 1.425400000E+01 7.385000000E-01
1.687198900E+00 2.395610000E+01 1.414100000E+01 7.349000000E-01
1.695634900E+00 2.423920000E+01 1.402900000E+01 7.312000000E-01
1.704113100E+00 2.449500000E+01 1.391700000E+01 7.276000000E-01
1.712633700E+00 2.472450000E+01 1.380700000E+01 7.239000000E-01
1.721196800E+00 2.492780000E+01 1.369800000E+01 7.203000000E-01
1.729802800E+00 2.510360000E+01 1.358900000E+01 7.168000000E-01
1.738451800E+00 2.524880000E+01 1.348200000E+01 7.132000000E-01
1.747144100E+00 2.535680000E+01 1.337500000E+01 7.096000000E-01
1.755879800E+00 2.541370000E+01 1.326900000E+01 7.061000000E-01
1.764659200E+00 2.538700000E+01 1.316400000E+01 7.026000000E-01
1.773482500E+00 2.516750000E+01 1.306000000E+01 6.991000000E-01
1.780485200E+00 2.427560000E+01 1.297900000E+01 6.964000000E-01
1.782349900E+00 2.339070000E+01 1.488300000E+01 6.956000000E-01
1.783514600E+00 2.431690000E+01 1.486900000E+01 6.952000000E-01
1.791261700E+00 2.560260000E+01 1.477100000E+01 6.922000000E-01
1.800218000E+00 2.620890000E+01 1.466000000E+01 6.887000000E-01
1.809219100E+00 2.663770000E+01 1.455000000E+01 6.853000000E-01
1.818265200E+00 2.698840000E+01 1.444100000E+01 6.819000000E-01
1.827356500E+00 2.729320000E+01 1.433200000E+01 6.785000000E-01
1.836493300E+00 2.756670000E+01 1.422500000E+01 6.751000000E-01
1.845675700E+00 2.781690000E+01 1.411800000E+01 6.718000000E-01
1.854904100E+00 2.804860000E+01 1.401200000E+01 6.684000000E-01
1.864178600E+00 2.826490000E+01 1.390700000E+01 6.651000000E-01
1.873499500E+00 2.846810000E+01 1.380300000E+01 6.618000000E-01
1.882867000E+00 2.866070000E+01 1.370200000E+01 6.585000000E-01
1.892281400E+00 2.884420000E+01 1.360100000E+01 6.552000000E-01
1.901742800E+00 2.901950000E+01 1.350200000E+01 6.520000000E-01
1.911251500E+00 2.918740000E+01 1.340400000E+01 6.487000000E-01
1.920807700E+00 2.934850000E+01 1.330600000E+01 6.455000000E-01
1.930411800E+00 2.950340000E+01 1.320900000E+01 6.423000000E-01
1.940063800E+00 2.965270000E+01 1.311300000E+01 6.391000000E-01
1.949764200E+00 2.979670000E+01 1.301800000E+01 6.359000000E-01
1.959513000E+00 2.993570000E+01 1.292400000E+01 6.327000000E-01
1.969310500E+00 3.007030000E+01 1.283000000E+01 6.296000000E-01
1.979157100E+00 3.020060000E+01 1.273800000E+01 6.264000000E-01
1.989052900E+00 3.032700000E+01 1.264600000E+01 6.233000000E-01
1.998998100E+00 3.044970000E+01 1.255500000E+01 6.202000000E-01
2.008993100E+00 3.056910000E+01 1.246500000E+01 6.171000000E-01
2.019038100E+00 3.068520000E+01 1.237400000E+01 6.141000000E-01
2.029133300E+00 3.079780000E+01 1.228400000E+01 6.110000000E-01
2.039279000E+00 3.090700000E+01 1.219400000E+01 6.080000000E-01
2.049475400E+00 3.101320000E+01 1.210500000E+01 6.050000000E-01
2.059722700E+00 3.111640000E+01 1.201600000E+01 6.019000000E-01
2.070021300E+00 3.121690000E+01 1.192900000E+01 5.990000000E-01
2.080371400E+00 3.131470000E+01 1.184100000E+01 5.960000000E-01
2.090773300E+00 3.140980000E+01 1.175400000E+01 5.930000000E-01
2.101227200E+00 3.150230000E+01 1.166700000E+01 5.901000000E-01
2.111733300E+00 3.159220000E+01 1.158100000E+01 5.871000000E-01
2.122292000E+00 3.167980000E+01 1.149600000E+01 5.842000000E-01
2.132903400E+00 3.176500000E+01 1.141100000E+01 5.813000000E-01
2.143568000E+00 3.184810000E+01 1.132700000E+01 5.784000000E-01
2.154285800E+00 3.192910000E+01 1.124300000E+01 5.755000000E-01
2.165057200E+00 3.200810000E+01 1.116000000E+01 5.727000000E-01
2.175882500E+00 3.208510000E+01 1.107800000E+01 5.698000000E-01
2.186761900E+00 3.216030000E+01 1.099700000E+01 5.670000000E-01
2.197695700E+00 3.223360000E+01 1.091600000E+01 5.642000000E-01
2.208684200E+00 3.230520000E+01 1.083500000E+01 5.613000000E-01
2.219727600E+00 3.237520000E+01 1.075600000E+01 5.586000000E-01
2.230826300E+00 3.244350000E+01 1.067600000E+01 5.558000000E-01
2.241980400E+00 3.251030000E+01 1.059800000E+01 5.530000000E-01
2.253190300E+00 3.257550000E+01 1.052000000E+01 5.503000000E-01
2.264456200E+00 3.263940000E+01 1.044200000E+01 5.475000000E-01
2.275778500E+00 3.270180000E+01 1.036600000E+01 5.448000000E-01
2.287157400E+00 3.276290000E+01 1.028900000E+01 5.421000000E-01
2.298593200E+00 3.282270000E+01 1.021400000E+01 5.394000000E-01
2.310086200E+00 3.288140000E+01 1.013800000E+01 5.367000000E-01
2.321636600E+00 3.293890000E+01 1.006300000E+01 5.340000000E-01
2.333244800E+00 3.299490000E+01 9.987900000E+00 5.314000000E-01
2.344911000E+00 3.304950000E+01 9.913100000E+00 5.287000000E-01
2.356635600E+00 3.310280000E+01 9.838900000E+00 5.261000000E-01
2.368418700E+00 3.315480000E+01 9.765200000E+00 5.235000000E-01
2.380260800E+00 3.320560000E+01 9.692100000E+00 5.209000000E-01
2.392162100E+00 3.325520000E+01 9.619500000E+00 5.183000000E-01
2.404123000E+00 3.330370000E+01 9.547400000E+00 5.157000000E-01
2.416143600E+00 3.335100000E+01 9.475800000E+00 5.131000000E-01
2.428224300E+00 3.339720000E+01 9.404800000E+00 5.106000000E-01
2.440365400E+00 3.344240000E+01 9.334200000E+00 5.081000000E-01
2.452567200E+00 3.348660000E+01 9.264200000E+00 5.055000000E-01
2.464830100E+00 3.352970000E+01 9.194700000E+00 5.030000000E-01
2.477154200E+00 3.357190000E+01 9.125700000E+00 5.005000000E-01
2.489540000E+00 3.361310000E+01 9.057200000E+00 4.980000000E-01
2.501987700E+00 3.365340000E+01 8.989200000E+00 4.955000000E-01
