# Data retrieved from physics.nist.gov 03/01/2021
# Element, Cu  (Z = 29) 
# Atomic weight, g mol-1 = 63.54600 
# Nominal density, g cm-3 =  8.9400 
# Relativistic correction estimate f_rel(5CL),  e atom-1 =  -8.7600E-02 
# Nuclear Thomson correction f_NT, e atom-1 =  -7.2602E-03 
#    E [keV]      f1 [e atom-1]      f2 [e atom-1]    Wavelength [nm] 
1.069000000E-02 5.115410000E+00 2.173300000E+00 1.160000000E+02
1.142761000E-02 5.164180000E+00 2.288900000E+00 1.085000000E+02
1.221612000E-02 5.216760000E+00 2.412600000E+00 1.015000000E+02
1.305903000E-02 5.273960000E+00 2.544900000E+00 9.494000000E+01
1.396010000E-02 5.336670000E+00 2.686400000E+00 8.881000000E+01
1.492335000E-02 5.405950000E+00 2.837400000E+00 8.308000000E+01
1.595306000E-02 5.483010000E+00 2.998500000E+00 7.772000000E+01
1.705382000E-02 5.569230000E+00 3.170100000E+00 7.270000000E+01
1.823053000E-02 5.666230000E+00 3.352500000E+00 6.801000000E+01
1.948844000E-02 5.775880000E+00 3.546000000E+00 6.362000000E+01
2.083314000E-02 5.900400000E+00 3.750700000E+00 5.951000000E+01
2.227063000E-02 6.042500000E+00 3.966900000E+00 5.567000000E+01
2.380730000E-02 6.205560000E+00 4.194600000E+00 5.208000000E+01
2.545001000E-02 6.393950000E+00 4.433600000E+00 4.872000000E+01
2.720606000E-02 6.613760000E+00 4.683700000E+00 4.557000000E+01
2.908327000E-02 6.874000000E+00 4.944700000E+00 4.263000000E+01
3.109002000E-02 7.180870000E+00 5.142900000E+00 3.988000000E+01
3.323523000E-02 7.487740000E+00 5.269500000E+00 3.731000000E+01
3.552846000E-02 7.790390000E+00 5.389200000E+00 3.490000000E+01
3.797993000E-02 8.092500000E+00 5.500500000E+00 3.264000000E+01
4.060054000E-02 8.395350000E+00 5.601900000E+00 3.054000000E+01
4.340198000E-02 8.698630000E+00 5.692200000E+00 2.857000000E+01
4.639671000E-02 9.000710000E+00 5.769800000E+00 2.672000000E+01
4.959809000E-02 9.298480000E+00 5.833500000E+00 2.500000000E+01
5.302035000E-02 9.586730000E+00 5.882100000E+00 2.338000000E+01
5.667876000E-02 9.856670000E+00 5.914500000E+00 2.187000000E+01
6.058959000E-02 1.009160000E+01 5.929800000E+00 2.046000000E+01
6.477028000E-02 1.025280000E+01 5.927300000E+00 1.914000000E+01
6.923942000E-02 1.020200000E+01 5.906600000E+00 1.791000000E+01
7.212800000E-02 9.674260000E+00 5.884700000E+00 1.719000000E+01
7.323200000E-02 8.645510000E+00 5.874800000E+00 1.693000000E+01
7.352640000E-02 7.258290000E+00 5.872100000E+00 1.686000000E+01
7.401695000E-02 9.016560000E+00 8.666600000E+00 1.675000000E+01
7.507200000E-02 1.037010000E+01 8.441900000E+00 1.652000000E+01
7.912411000E-02 1.189480000E+01 7.734000000E+00 1.567000000E+01
8.458368000E-02 1.256020000E+01 7.093100000E+00 1.466000000E+01
9.041995000E-02 1.290200000E+01 6.712300000E+00 1.371000000E+01
9.665893000E-02 1.315770000E+01 6.459700000E+00 1.283000000E+01
1.033284000E-01 1.337090000E+01 6.272800000E+00 1.200000000E+01
1.104581000E-01 1.353800000E+01 6.123400000E+00 1.122000000E+01
1.174040000E-01 1.357000000E+01 6.008500000E+00 1.056000000E+01
1.180797000E-01 1.354660000E+01 5.998500000E+00 1.050000000E+01
1.192010000E-01 1.344400000E+01 5.982400000E+00 1.040000000E+01
1.196802000E-01 1.325590000E+01 5.975700000E+00 1.036000000E+01
1.203990000E-01 1.347060000E+01 6.356700000E+00 1.030000000E+01
1.221960000E-01 1.368540000E+01 6.340700000E+00 1.015000000E+01
1.262272000E-01 1.390790000E+01 6.309100000E+00 9.822000000E+00
1.349368000E-01 1.422990000E+01 6.257700000E+00 9.188000000E+00
1.442475000E-01 1.451500000E+01 6.218800000E+00 8.595000000E+00
1.542005000E-01 1.479080000E+01 6.189200000E+00 8.040000000E+00
1.648404000E-01 1.506620000E+01 6.166700000E+00 7.521000000E+00
1.762144000E-01 1.534620000E+01 6.148500000E+00 7.036000000E+00
1.883732000E-01 1.563360000E+01 6.131000000E+00 6.582000000E+00
2.013709000E-01 1.593000000E+01 6.110100000E+00 6.157000000E+00
2.152655000E-01 1.623550000E+01 6.081200000E+00 5.760000000E+00
2.301188000E-01 1.655030000E+01 6.039800000E+00 5.388000000E+00
2.459970000E-01 1.686820000E+01 5.982100000E+00 5.040000000E+00
2.629708000E-01 1.718720000E+01 5.904800000E+00 4.715000000E+00
2.811158000E-01 1.750250000E+01 5.805700000E+00 4.410000000E+00
3.005128000E-01 1.780970000E+01 5.683900000E+00 4.126000000E+00
3.212482000E-01 1.810270000E+01 5.536000000E+00 3.859000000E+00
3.434143000E-01 1.837330000E+01 5.363500000E+00 3.610000000E+00
3.671099000E-01 1.861380000E+01 5.169900000E+00 3.377000000E+00
3.924405000E-01 1.882060000E+01 4.959600000E+00 3.159000000E+00
4.195189000E-01 1.898820000E+01 4.736900000E+00 2.955000000E+00
4.484657000E-01 1.911220000E+01 4.506300000E+00 2.765000000E+00
4.794098000E-01 1.918840000E+01 4.271800000E+00 2.586000000E+00
5.124891000E-01 1.921160000E+01 4.036700000E+00 2.419000000E+00
5.478508000E-01 1.917440000E+01 3.804000000E+00 2.263000000E+00
5.856525000E-01 1.906630000E+01 3.576200000E+00 2.117000000E+00
6.260625000E-01 1.887080000E+01 3.355200000E+00 1.980000000E+00
6.692609000E-01 1.856080000E+01 3.142600000E+00 1.853000000E+00
7.154399000E-01 1.808770000E+01 2.939300000E+00 1.733000000E+00
7.648052000E-01 1.735720000E+01 2.712200000E+00 1.621000000E+00
8.175768000E-01 1.613680000E+01 2.493900000E+00 1.516000000E+00
8.739896000E-01 1.368480000E+01 2.294800000E+00 1.419000000E+00
9.124780000E-01 9.419490000E+00 2.175600000E+00 1.359000000E+00
9.264445000E-01 4.240020000E+00 2.135200000E+00 1.338000000E+00
9.301689000E-01 -1.516870000E+00 2.124700000E+00 1.333000000E+00
9.319800000E-01 -1.755920000E+00 1.311900000E+01 1.330000000E+00
9.342948000E-01 2.658940000E+00 1.304300000E+01 1.327000000E+00
9.357555000E-01 3.884060000E+00 1.299600000E+01 1.325000000E+00
9.462450000E-01 6.370000000E+00 1.266200000E+01 1.310000000E+00
9.500490000E-01 4.476630000E+00 1.254500000E+01 1.305000000E+00
9.557550000E-01 8.423740000E+00 1.779800000E+01 1.297000000E+00
9.700200000E-01 1.274520000E+01 1.716500000E+01 1.278000000E+00
9.987612000E-01 1.653300000E+01 1.598400000E+01 1.241000000E+00
1.067676000E+00 1.986790000E+01 1.386200000E+01 1.161000000E+00
1.074178000E+00 1.996700000E+01 1.370500000E+01 1.154000000E+00
1.090619000E+00 1.979170000E+01 1.332800000E+01 1.137000000E+00
1.095004000E+00 1.911760000E+01 1.323100000E+01 1.132000000E+00
1.101580000E+00 2.004150000E+01 1.465100000E+01 1.126000000E+00
1.118022000E+00 2.112550000E+01 1.438300000E+01 1.109000000E+00
1.141345000E+00 2.202500000E+01 1.404100000E+01 1.086000000E+00
1.220098000E+00 2.404940000E+01 1.286200000E+01 1.016000000E+00
1.304285000E+00 2.539500000E+01 1.173100000E+01 9.506000000E-01
1.394281000E+00 2.636650000E+01 1.068800000E+01 8.892000000E-01
1.490486000E+00 2.709490000E+01 9.744900000E+00 8.318000000E-01
1.593329000E+00 2.769810000E+01 8.886700000E+00 7.781000000E-01
1.703269000E+00 2.815250000E+01 8.018300000E+00 7.279000000E-01
1.820795000E+00 2.846700000E+01 7.230300000E+00 6.809000000E-01
1.946430000E+00 2.868840000E+01 6.519400000E+00 6.370000000E-01
2.080733000E+00 2.884190000E+01 5.878000000E+00 5.959000000E-01
2.224304000E+00 2.898640000E+01 5.295700000E+00 5.574000000E-01
2.377781000E+00 2.904620000E+01 4.758100000E+00 5.214000000E-01
2.541848000E+00 2.906900000E+01 4.276900000E+00 4.878000000E-01
2.717235000E+00 2.906770000E+01 3.847000000E+00 4.563000000E-01
2.904724000E+00 2.905750000E+01 3.463300000E+00 4.268000000E-01
3.105150000E+00 2.904570000E+01 3.101400000E+00 3.993000000E-01
3.319406000E+00 2.899220000E+01 2.763700000E+00 3.735000000E-01
3.548445000E+00 2.892620000E+01 2.465000000E+00 3.494000000E-01
3.793288000E+00 2.885350000E+01 2.197600000E+00 3.269000000E-01
4.055024000E+00 2.877040000E+01 1.949600000E+00 3.058000000E-01
4.334821000E+00 2.867820000E+01 1.731700000E+00 2.860000000E-01
4.633924000E+00 2.858080000E+01 1.540200000E+00 2.676000000E-01
4.953664000E+00 2.847900000E+01 1.367000000E+00 2.503000000E-01
5.295467000E+00 2.836860000E+01 1.212100000E+00 2.341000000E-01
5.660855000E+00 2.824910000E+01 1.075800000E+00 2.190000000E-01
6.051453000E+00 2.811750000E+01 9.556300000E-01 2.049000000E-01
6.469004000E+00 2.796830000E+01 8.497100000E-01 1.917000000E-01
6.915365000E+00 2.779020000E+01 7.562400000E-01 1.793000000E-01
7.392525000E+00 2.756100000E+01 6.736900000E-01 1.677000000E-01
7.902609000E+00 2.722700000E+01 6.007100000E-01 1.569000000E-01
8.447890000E+00 2.659930000E+01 5.361300000E-01 1.468000000E-01
8.799322000E+00 2.556490000E+01 5.003700000E-01 1.409000000E-01
8.934005000E+00 2.414930000E+01 4.872100000E-01 1.388000000E-01
8.969921000E+00 2.243260000E+01 4.834000000E-01 1.382000000E-01
9.030794000E+00 2.434890000E+01 3.858200000E+00 1.373000000E-01
9.158478000E+00 2.577260000E+01 3.754000000E+00 1.354000000E-01
9.653919000E+00 2.731200000E+01 3.405400000E+00 1.284000000E-01
1.032004000E+01 2.807270000E+01 3.050400000E+00 1.201000000E-01
1.103212000E+01 2.850460000E+01 2.746200000E+00 1.124000000E-01
1.179334000E+01 2.879850000E+01 2.473600000E+00 1.051000000E-01
1.260708000E+01 2.900170000E+01 2.212900000E+00 9.834000000E-02
1.347697000E+01 2.914130000E+01 1.976600000E+00 9.200000000E-02
1.440688000E+01 2.923730000E+01 1.763100000E+00 8.606000000E-02
1.540095000E+01 2.930170000E+01 1.571200000E+00 8.050000000E-02
1.646362000E+01 2.934340000E+01 1.399400000E+00 7.531000000E-02
1.759961000E+01 2.936880000E+01 1.246300000E+00 7.045000000E-02
1.881398000E+01 2.941890000E+01 1.105900000E+00 6.590000000E-02
2.011215000E+01 2.941950000E+01 9.798600000E-01 6.165000000E-02
2.149988000E+01 2.941250000E+01 8.682600000E-01 5.767000000E-02
2.298338000E+01 2.940060000E+01 7.694500000E-01 5.395000000E-02
2.456923000E+01 2.938550000E+01 6.815500000E-01 5.046000000E-02
2.626450000E+01 2.936840000E+01 6.036300000E-01 4.721000000E-02
2.807676000E+01 2.935160000E+01 5.321600000E-01 4.416000000E-02
3.001405000E+01 2.933160000E+01 4.684700000E-01 4.131000000E-02
3.208502000E+01 2.931060000E+01 4.124200000E-01 3.864000000E-02
3.429889000E+01 2.928960000E+01 3.631000000E-01 3.615000000E-02
3.666551000E+01 2.926920000E+01 3.196900000E-01 3.381000000E-02
3.919543000E+01 2.924970000E+01 2.813100000E-01 3.163000000E-02
4.189992000E+01 2.923080000E+01 2.462800000E-01 2.959000000E-02
4.479101000E+01 2.921230000E+01 2.156300000E-01 2.768000000E-02
4.788159000E+01 2.919460000E+01 1.888000000E-01 2.589000000E-02
5.118542000E+01 2.917790000E+01 1.653100000E-01 2.422000000E-02
5.471721000E+01 2.916230000E+01 1.447500000E-01 2.266000000E-02
5.849270000E+01 2.914780000E+01 1.267500000E-01 2.120000000E-02
6.252870000E+01 2.913440000E+01 1.109800000E-01 1.983000000E-02
6.684318000E+01 2.912200000E+01 9.718500000E-02 1.855000000E-02
7.145536000E+01 2.911060000E+01 8.510400000E-02 1.735000000E-02
7.638578000E+01 2.910010000E+01 7.452700000E-02 1.623000000E-02
8.165640000E+01 2.909070000E+01 6.518000000E-02 1.518000000E-02
8.729069000E+01 2.908210000E+01 5.683400000E-02 1.420000000E-02
9.331374000E+01 2.907410000E+01 4.955900000E-02 1.329000000E-02
9.975239000E+01 2.906680000E+01 4.321700000E-02 1.243000000E-02
1.066353000E+02 2.906010000E+01 3.768700000E-02 1.163000000E-02
1.139931000E+02 2.905410000E+01 3.286600000E-02 1.088000000E-02
1.218587000E+02 2.904860000E+01 2.866200000E-02 1.017000000E-02
1.302669000E+02 2.904360000E+01 2.499700000E-02 9.518000000E-03
1.392553000E+02 2.903910000E+01 2.180100000E-02 8.903000000E-03
1.488640000E+02 2.903500000E+01 1.901500000E-02 8.329000000E-03
1.591356000E+02 2.903130000E+01 1.658500000E-02 7.791000000E-03
1.701159000E+02 2.902800000E+01 1.446600000E-02 7.288000000E-03
1.818539000E+02 2.902510000E+01 1.261800000E-02 6.818000000E-03
1.944018000E+02 2.902240000E+01 1.100600000E-02 6.378000000E-03
2.078156000E+02 2.902000000E+01 9.600700000E-03 5.966000000E-03
2.221548000E+02 2.901790000E+01 8.374900000E-03 5.581000000E-03
2.374835000E+02 2.901590000E+01 7.305800000E-03 5.221000000E-03
2.538699000E+02 2.901420000E+01 6.373400000E-03 4.884000000E-03
2.713869000E+02 2.901270000E+01 5.560100000E-03 4.569000000E-03
2.901126000E+02 2.901130000E+01 4.850700000E-03 4.274000000E-03
3.101304000E+02 2.901010000E+01 4.231900000E-03 3.998000000E-03
3.315294000E+02 2.900900000E+01 3.692200000E-03 3.740000000E-03
3.544049000E+02 2.900800000E+01 3.221400000E-03 3.498000000E-03
3.788588000E+02 2.900710000E+01 2.810600000E-03 3.273000000E-03
4.050001000E+02 2.900630000E+01 2.452400000E-03 3.061000000E-03
4.329451000E+02 2.900560000E+01 2.139800000E-03 2.864000000E-03
