# Data retrieved from physics.nist.gov 03/01/2021
# Element, Hg  (Z = 80) 
# Atomic weight, g mol-1 = 200.5900 
# Nominal density, g cm-3 =  1.3522E+01 
# Relativistic correction estimate f_rel(5CL),  e atom-1 =  -1.0458E+00 
# Nuclear Thomson correction f_NT, e atom-1 =  -1.7503E-02 
#    E [keV]      f1 [e atom-1]      f2 [e atom-1]    Wavelength [nm] 
6.272000000E-03 2.495010000E+00 0.000000000E+00 1.977000000E+02
6.368000000E-03 1.428320000E+00 0.000000000E+00 1.947000000E+02
6.393600000E-03 2.005890000E-01 0.000000000E+00 1.939000000E+02
6.432000000E-03 1.441930000E+00 2.387300000E+00 1.928000000E+02
6.528000000E-03 2.488020000E+00 2.336500000E+00 1.899000000E+02
7.559334000E-03 3.105900000E+00 1.985200000E+00 1.640000000E+02
7.675038000E-03 2.742440000E+00 1.986300000E+00 1.615000000E+02
7.705893000E-03 2.333990000E+00 1.987900000E+00 1.609000000E+02
7.752174000E-03 2.732580000E+00 2.777000000E+00 1.599000000E+02
7.867878000E-03 3.054710000E+00 2.779100000E+00 1.576000000E+02
1.069000000E-02 2.457590000E+00 4.146800000E+00 1.160000000E+02
1.142761000E-02 2.168530000E+00 4.844200000E+00 1.085000000E+02
1.221612000E-02 1.939570000E+00 5.722600000E+00 1.015000000E+02
1.305903000E-02 1.828490000E+00 6.778100000E+00 9.494000000E+01
1.396010000E-02 1.894240000E+00 7.989600000E+00 8.881000000E+01
1.492335000E-02 2.191170000E+00 9.316300000E+00 8.308000000E+01
1.595306000E-02 2.762010000E+00 1.069900000E+01 7.772000000E+01
1.705382000E-02 3.630800000E+00 1.206300000E+01 7.270000000E+01
1.823053000E-02 4.797300000E+00 1.332700000E+01 6.801000000E+01
1.948844000E-02 6.387750000E+00 1.440900000E+01 6.362000000E+01
2.083314000E-02 8.044160000E+00 1.523900000E+01 5.951000000E+01
2.227063000E-02 9.848040000E+00 1.576700000E+01 5.567000000E+01
2.380730000E-02 1.171690000E+01 1.596700000E+01 5.208000000E+01
2.545001000E-02 1.356930000E+01 1.584100000E+01 4.872000000E+01
2.720606000E-02 1.532890000E+01 1.540000000E+01 4.557000000E+01
2.908327000E-02 1.691500000E+01 1.468000000E+01 4.263000000E+01
3.109002000E-02 1.827270000E+01 1.375000000E+01 3.988000000E+01
3.323523000E-02 1.937570000E+01 1.268300000E+01 3.731000000E+01
3.552846000E-02 2.021960000E+01 1.154700000E+01 3.490000000E+01
3.797993000E-02 2.081550000E+01 1.039600000E+01 3.264000000E+01
4.060054000E-02 2.118300000E+01 9.277100000E+00 3.054000000E+01
4.340198000E-02 2.134360000E+01 8.220000000E+00 2.857000000E+01
4.639671000E-02 2.131230000E+01 7.245300000E+00 2.672000000E+01
4.959809000E-02 2.108270000E+01 6.363400000E+00 2.500000000E+01
5.302035000E-02 2.057390000E+01 5.577400000E+00 2.338000000E+01
5.644800000E-02 1.925130000E+01 4.925000000E+00 2.196000000E+01
5.667876000E-02 1.903600000E+01 4.885200000E+00 2.187000000E+01
5.731200000E-02 1.790460000E+01 4.778700000E+00 2.163000000E+01
5.754240000E-02 1.630990000E+01 4.740900000E+00 2.155000000E+01
5.788800000E-02 1.797320000E+01 7.811300000E+00 2.142000000E+01
5.875200000E-02 1.940280000E+01 7.573900000E+00 2.110000000E+01
6.058959000E-02 2.034180000E+01 7.104200000E+00 2.046000000E+01
6.477028000E-02 2.098200000E+01 6.188500000E+00 1.914000000E+01
6.923942000E-02 2.105140000E+01 5.392100000E+00 1.791000000E+01
7.401695000E-02 2.078970000E+01 4.706900000E+00 1.675000000E+01
7.889000000E-02 2.000150000E+01 4.148100000E+00 1.572000000E+01
7.912411000E-02 1.991830000E+01 4.124200000E+00 1.567000000E+01
8.009750000E-02 1.929180000E+01 4.027600000E+00 1.548000000E+01
8.041950000E-02 1.849950000E+01 3.996600000E+00 1.542000000E+01
8.090250000E-02 1.927190000E+01 5.476500000E+00 1.533000000E+01
8.211000000E-02 1.990560000E+01 5.352700000E+00 1.510000000E+01
8.458368000E-02 2.025310000E+01 5.117300000E+00 1.466000000E+01
9.041995000E-02 2.036920000E+01 4.640600000E+00 1.371000000E+01
9.653000000E-02 2.007520000E+01 4.184800000E+00 1.284000000E+01
9.665893000E-02 2.006070000E+01 4.175500000E+00 1.283000000E+01
9.800750000E-02 1.980950000E+01 4.079900000E+00 1.265000000E+01
9.840150000E-02 1.954940000E+01 4.052400000E+00 1.260000000E+01
9.899250000E-02 1.975960000E+01 4.482500000E+00 1.252000000E+01
1.001560000E-01 1.986400000E+01 4.402900000E+00 1.238000000E+01
1.004700000E-01 1.986370000E+01 4.381800000E+00 1.234000000E+01
1.016890000E-01 1.977130000E+01 4.300800000E+00 1.219000000E+01
1.020978000E-01 1.960980000E+01 4.274000000E+00 1.214000000E+01
1.027110000E-01 1.977520000E+01 4.557000000E+00 1.207000000E+01
1.033284000E-01 1.985280000E+01 4.518500000E+00 1.200000000E+01
1.042440000E-01 1.990210000E+01 4.462300000E+00 1.189000000E+01
1.104581000E-01 1.983180000E+01 4.114800000E+00 1.122000000E+01
1.178940000E-01 1.942440000E+01 3.812800000E+00 1.052000000E+01
1.180797000E-01 1.941060000E+01 3.807100000E+00 1.050000000E+01
1.196985000E-01 1.926690000E+01 3.760800000E+00 1.036000000E+01
1.201797000E-01 1.918230000E+01 3.748300000E+00 1.032000000E+01
1.209015000E-01 1.918860000E+01 3.838700000E+00 1.025000000E+01
1.227060000E-01 1.911410000E+01 3.808500000E+00 1.010000000E+01
1.262272000E-01 1.889830000E+01 3.769700000E+00 9.822000000E+00
1.349368000E-01 1.827290000E+01 3.782900000E+00 9.188000000E+00
1.442475000E-01 1.753850000E+01 3.959900000E+00 8.595000000E+00
1.542005000E-01 1.671880000E+01 4.328800000E+00 8.040000000E+00
1.648404000E-01 1.583890000E+01 4.924800000E+00 7.521000000E+00
1.762144000E-01 1.494250000E+01 5.785900000E+00 7.036000000E+00
1.883732000E-01 1.407190000E+01 6.946000000E+00 6.582000000E+00
2.013709000E-01 1.330630000E+01 8.426500000E+00 6.157000000E+00
2.152655000E-01 1.273300000E+01 1.022600000E+01 5.760000000E+00
2.301188000E-01 1.244510000E+01 1.231500000E+01 5.388000000E+00
2.459970000E-01 1.253280000E+01 1.462700000E+01 5.040000000E+00
2.629708000E-01 1.305240000E+01 1.706600000E+01 4.715000000E+00
2.811158000E-01 1.403820000E+01 1.951300000E+01 4.410000000E+00
3.005128000E-01 1.547640000E+01 2.183800000E+01 4.126000000E+00
3.212482000E-01 1.729420000E+01 2.391500000E+01 3.859000000E+00
3.434143000E-01 1.932070000E+01 2.563900000E+01 3.610000000E+00
3.526040000E-01 2.006580000E+01 2.620500000E+01 3.516000000E+00
3.580010000E-01 2.031150000E+01 2.649900000E+01 3.463000000E+00
3.594402000E-01 2.013570000E+01 2.657300000E+01 3.449000000E+00
3.615990000E-01 2.062640000E+01 2.728600000E+01 3.429000000E+00
3.671099000E-01 2.137940000E+01 2.758500000E+01 3.377000000E+00
3.707340000E-01 2.176220000E+01 2.776800000E+01 3.344000000E+00
3.764085000E-01 2.221110000E+01 2.803300000E+01 3.294000000E+00
3.779217000E-01 2.215240000E+01 2.809900000E+01 3.281000000E+00
3.801915000E-01 2.261310000E+01 2.863700000E+01 3.261000000E+00
3.858660000E-01 2.340960000E+01 2.889100000E+01 3.213000000E+00
3.924405000E-01 2.419320000E+01 2.915900000E+01 3.159000000E+00
4.195189000E-01 2.714740000E+01 2.996300000E+01 2.955000000E+00
4.484657000E-01 3.002210000E+01 3.031600000E+01 2.765000000E+00
4.794098000E-01 3.273460000E+01 3.025800000E+01 2.586000000E+00
5.000000000E-01 3.555630000E+01 3.004100000E+01 2.480000000E+00
5.025000000E-01 3.573550000E+01 3.000700000E+01 2.467000000E+00
5.050125000E-01 3.591270000E+01 2.997200000E+01 2.455000000E+00
5.075375600E-01 3.608770000E+01 2.993500000E+01 2.443000000E+00
5.100752500E-01 3.626050000E+01 2.989600000E+01 2.431000000E+00
5.126256300E-01 3.643090000E+01 2.985600000E+01 2.419000000E+00
5.151887500E-01 3.659880000E+01 2.981400000E+01 2.407000000E+00
5.177647000E-01 3.676410000E+01 2.977100000E+01 2.395000000E+00
5.203535200E-01 3.692670000E+01 2.972600000E+01 2.383000000E+00
5.229552900E-01 3.708630000E+01 2.968000000E+01 2.371000000E+00
5.255700700E-01 3.724270000E+01 2.963200000E+01 2.359000000E+00
5.281979200E-01 3.739580000E+01 2.958300000E+01 2.347000000E+00
5.308389100E-01 3.754520000E+01 2.953300000E+01 2.336000000E+00
5.334931000E-01 3.769060000E+01 2.948100000E+01 2.324000000E+00
5.361605700E-01 3.783160000E+01 2.942800000E+01 2.312000000E+00
5.388413700E-01 3.796770000E+01 2.937400000E+01 2.301000000E+00
5.415355800E-01 3.809810000E+01 2.931900000E+01 2.289000000E+00
5.442432500E-01 3.822220000E+01 2.926200000E+01 2.278000000E+00
5.469644700E-01 3.833870000E+01 2.920400000E+01 2.267000000E+00
5.496992900E-01 3.844610000E+01 2.914600000E+01 2.255000000E+00
5.524477900E-01 3.854230000E+01 2.908500000E+01 2.244000000E+00
5.552100300E-01 3.862400000E+01 2.902400000E+01 2.233000000E+00
5.579860800E-01 3.868610000E+01 2.896200000E+01 2.222000000E+00
5.607760100E-01 3.871980000E+01 2.889900000E+01 2.211000000E+00
5.635798900E-01 3.870720000E+01 2.883500000E+01 2.200000000E+00
5.663977900E-01 3.860460000E+01 2.876900000E+01 2.189000000E+00
5.692297800E-01 3.823150000E+01 2.870300000E+01 2.178000000E+00
5.702805200E-01 3.778530000E+01 2.867800000E+01 2.174000000E+00
5.717194400E-01 3.786700000E+01 3.041100000E+01 2.169000000E+00
5.720759300E-01 3.811330000E+01 3.040200000E+01 2.167000000E+00
5.749363000E-01 3.900330000E+01 3.033600000E+01 2.156000000E+00
5.778109900E-01 3.947150000E+01 3.027000000E+01 2.146000000E+00
5.807000400E-01 3.982910000E+01 3.020200000E+01 2.135000000E+00
5.836035400E-01 4.013390000E+01 3.013300000E+01 2.124000000E+00
5.865215600E-01 4.040730000E+01 3.006400000E+01 2.114000000E+00
5.894541700E-01 4.065950000E+01 2.999400000E+01 2.103000000E+00
5.924014400E-01 4.089630000E+01 2.992300000E+01 2.093000000E+00
5.953634500E-01 4.112130000E+01 2.985100000E+01 2.082000000E+00
5.983402600E-01 4.133680000E+01 2.977900000E+01 2.072000000E+00
6.013319600E-01 4.154440000E+01 2.970500000E+01 2.062000000E+00
6.043386200E-01 4.174520000E+01 2.963200000E+01 2.052000000E+00
6.073603200E-01 4.194020000E+01 2.955700000E+01 2.041000000E+00
6.103971200E-01 4.213000000E+01 2.948200000E+01 2.031000000E+00
6.134491000E-01 4.231500000E+01 2.940600000E+01 2.021000000E+00
6.165163500E-01 4.249570000E+01 2.932900000E+01 2.011000000E+00
6.195989300E-01 4.267240000E+01 2.925200000E+01 2.001000000E+00
6.226969300E-01 4.284530000E+01 2.917500000E+01 1.991000000E+00
6.258104100E-01 4.301460000E+01 2.909700000E+01 1.981000000E+00
6.289394600E-01 4.318050000E+01 2.901800000E+01 1.971000000E+00
6.320841600E-01 4.334300000E+01 2.893900000E+01 1.962000000E+00
6.352445800E-01 4.350220000E+01 2.885900000E+01 1.952000000E+00
6.384208000E-01 4.365820000E+01 2.877900000E+01 1.942000000E+00
6.416129100E-01 4.381080000E+01 2.869800000E+01 1.932000000E+00
6.448209700E-01 4.396000000E+01 2.861700000E+01 1.923000000E+00
6.480450800E-01 4.410560000E+01 2.853500000E+01 1.913000000E+00
6.512853000E-01 4.424750000E+01 2.845300000E+01 1.904000000E+00
6.545417300E-01 4.438510000E+01 2.837000000E+01 1.894000000E+00
6.578144400E-01 4.451790000E+01 2.828700000E+01 1.885000000E+00
6.611035100E-01 4.464480000E+01 2.820400000E+01 1.875000000E+00
6.644090300E-01 4.476400000E+01 2.812000000E+01 1.866000000E+00
6.677310700E-01 4.487210000E+01 2.803600000E+01 1.857000000E+00
6.710697300E-01 4.496040000E+01 2.795200000E+01 1.848000000E+00
6.744250800E-01 4.499670000E+01 2.786700000E+01 1.838000000E+00
6.759456000E-01 4.494250000E+01 2.782800000E+01 1.834000000E+00
6.777972000E-01 4.501100000E+01 2.816900000E+01 1.829000000E+00
6.778544600E-01 4.502090000E+01 2.816800000E+01 1.829000000E+00
6.811861900E-01 4.534180000E+01 2.808600000E+01 1.820000000E+00
6.845921200E-01 4.555090000E+01 2.800200000E+01 1.811000000E+00
6.880150800E-01 4.573170000E+01 2.791800000E+01 1.802000000E+00
6.914551500E-01 4.589900000E+01 2.783300000E+01 1.793000000E+00
6.949124300E-01 4.605770000E+01 2.774900000E+01 1.784000000E+00
6.983869900E-01 4.621040000E+01 2.766400000E+01 1.775000000E+00
7.018789300E-01 4.635840000E+01 2.757900000E+01 1.766000000E+00
7.053883200E-01 4.650240000E+01 2.749300000E+01 1.758000000E+00
7.089152600E-01 4.664310000E+01 2.740800000E+01 1.749000000E+00
7.124598400E-01 4.678070000E+01 2.732200000E+01 1.740000000E+00
7.160221400E-01 4.691560000E+01 2.723600000E+01 1.732000000E+00
7.196022500E-01 4.704790000E+01 2.715000000E+01 1.723000000E+00
7.232002600E-01 4.717770000E+01 2.706400000E+01 1.714000000E+00
7.268162600E-01 4.730520000E+01 2.697700000E+01 1.706000000E+00
7.304503400E-01 4.743050000E+01 2.689100000E+01 1.697000000E+00
7.341026000E-01 4.755350000E+01 2.680400000E+01 1.689000000E+00
7.377731100E-01 4.767420000E+01 2.671700000E+01 1.681000000E+00
7.414619700E-01 4.779280000E+01 2.663100000E+01 1.672000000E+00
7.451692800E-01 4.790910000E+01 2.654400000E+01 1.664000000E+00
7.488951300E-01 4.802310000E+01 2.645700000E+01 1.656000000E+00
7.526396100E-01 4.813470000E+01 2.636900000E+01 1.647000000E+00
7.564028000E-01 4.824370000E+01 2.628200000E+01 1.639000000E+00
7.601848200E-01 4.835010000E+01 2.619500000E+01 1.631000000E+00
7.639857400E-01 4.845350000E+01 2.610700000E+01 1.623000000E+00
7.678056700E-01 4.855360000E+01 2.602000000E+01 1.615000000E+00
7.716447000E-01 4.865000000E+01 2.593300000E+01 1.607000000E+00
7.755029200E-01 4.874180000E+01 2.584500000E+01 1.599000000E+00
7.793804400E-01 4.882800000E+01 2.575700000E+01 1.591000000E+00
7.832773400E-01 4.890680000E+01 2.567000000E+01 1.583000000E+00
7.871937300E-01 4.897480000E+01 2.558200000E+01 1.575000000E+00
7.911296900E-01 4.902500000E+01 2.549500000E+01 1.567000000E+00
7.950853400E-01 4.903820000E+01 2.540700000E+01 1.559000000E+00
7.990607700E-01 4.889920000E+01 2.531900000E+01 1.552000000E+00
7.990675400E-01 4.889840000E+01 2.531900000E+01 1.552000000E+00
8.015324600E-01 4.896540000E+01 2.580900000E+01 1.547000000E+00
8.030560700E-01 4.914570000E+01 2.577600000E+01 1.544000000E+00
8.070713500E-01 4.940870000E+01 2.568900000E+01 1.536000000E+00
8.111067100E-01 4.959630000E+01 2.560200000E+01 1.529000000E+00
8.151622400E-01 4.975720000E+01 2.551500000E+01 1.521000000E+00
8.192380600E-01 4.990390000E+01 2.542800000E+01 1.513000000E+00
8.233342500E-01 5.004170000E+01 2.534200000E+01 1.506000000E+00
8.274509200E-01 5.017310000E+01 2.525500000E+01 1.498000000E+00
8.315881700E-01 5.029980000E+01 2.516800000E+01 1.491000000E+00
8.357461100E-01 5.042260000E+01 2.508200000E+01 1.484000000E+00
8.399248400E-01 5.054220000E+01 2.499500000E+01 1.476000000E+00
8.441244700E-01 5.065910000E+01 2.490900000E+01 1.469000000E+00
8.483450900E-01 5.077360000E+01 2.482200000E+01 1.461000000E+00
8.525868200E-01 5.088600000E+01 2.473600000E+01 1.454000000E+00
8.568497500E-01 5.099650000E+01 2.465000000E+01 1.447000000E+00
8.611340000E-01 5.110520000E+01 2.456400000E+01 1.440000000E+00
8.654396700E-01 5.121240000E+01 2.447800000E+01 1.433000000E+00
8.697668700E-01 5.131800000E+01 2.439200000E+01 1.425000000E+00
8.741157000E-01 5.142230000E+01 2.430600000E+01 1.418000000E+00
8.784862800E-01 5.152530000E+01 2.422000000E+01 1.411000000E+00
8.828787100E-01 5.162700000E+01 2.413500000E+01 1.404000000E+00
8.872931000E-01 5.172760000E+01 2.404900000E+01 1.397000000E+00
8.917295700E-01 5.182710000E+01 2.396400000E+01 1.390000000E+00
8.961882200E-01 5.192560000E+01 2.387800000E+01 1.383000000E+00
9.006691600E-01 5.202300000E+01 2.379300000E+01 1.377000000E+00
9.051725000E-01 5.211940000E+01 2.370800000E+01 1.370000000E+00
9.096983700E-01 5.221490000E+01 2.362300000E+01 1.363000000E+00
9.142468600E-01 5.230950000E+01 2.353800000E+01 1.356000000E+00
9.188180900E-01 5.240320000E+01 2.345400000E+01 1.349000000E+00
9.234121800E-01 5.249610000E+01 2.336900000E+01 1.343000000E+00
9.280292400E-01 5.258820000E+01 2.328500000E+01 1.336000000E+00
9.326693900E-01 5.267960000E+01 2.320000000E+01 1.329000000E+00
9.373327400E-01 5.277020000E+01 2.311600000E+01 1.323000000E+00
9.420194000E-01 5.286010000E+01 2.303200000E+01 1.316000000E+00
9.467295000E-01 5.294950000E+01 2.294800000E+01 1.310000000E+00
9.514631500E-01 5.303820000E+01 2.286500000E+01 1.303000000E+00
9.562204600E-01 5.312630000E+01 2.278100000E+01 1.297000000E+00
9.610015600E-01 5.321390000E+01 2.269800000E+01 1.290000000E+00
9.658065700E-01 5.330110000E+01 2.261500000E+01 1.284000000E+00
9.706356000E-01 5.338770000E+01 2.253100000E+01 1.277000000E+00
9.754887800E-01 5.347380000E+01 2.244700000E+01 1.271000000E+00
9.803662300E-01 5.355950000E+01 2.236400000E+01 1.265000000E+00
9.852680600E-01 5.364490000E+01 2.228100000E+01 1.258000000E+00
9.901944000E-01 5.373000000E+01 2.219800000E+01 1.252000000E+00
9.951453700E-01 5.381510000E+01 2.211500000E+01 1.246000000E+00
1.000121100E+00 5.390030000E+01 2.203200000E+01 1.240000000E+00
1.005121700E+00 5.398360000E+01 2.191800000E+01 1.234000000E+00
1.010147300E+00 5.406440000E+01 2.180400000E+01 1.227000000E+00
1.015198000E+00 5.414310000E+01 2.169200000E+01 1.221000000E+00
1.020274000E+00 5.421950000E+01 2.158000000E+01 1.215000000E+00
1.025375400E+00 5.429400000E+01 2.146800000E+01 1.209000000E+00
1.030502300E+00 5.436650000E+01 2.135800000E+01 1.203000000E+00
1.035654800E+00 5.443720000E+01 2.124800000E+01 1.197000000E+00
1.040833100E+00 5.450600000E+01 2.113800000E+01 1.191000000E+00
1.046037200E+00 5.457310000E+01 2.102900000E+01 1.185000000E+00
1.051267400E+00 5.463850000E+01 2.092100000E+01 1.179000000E+00
1.056523800E+00 5.470220000E+01 2.081300000E+01 1.174000000E+00
1.061806400E+00 5.476430000E+01 2.070600000E+01 1.168000000E+00
1.067115400E+00 5.482480000E+01 2.059900000E+01 1.162000000E+00
1.072451000E+00 5.488390000E+01 2.049300000E+01 1.156000000E+00
1.077813200E+00 5.494140000E+01 2.038800000E+01 1.150000000E+00
1.083202300E+00 5.501670000E+01 2.028300000E+01 1.145000000E+00
1.088618300E+00 5.507150000E+01 2.017800000E+01 1.139000000E+00
1.094061400E+00 5.512490000E+01 2.007400000E+01 1.133000000E+00
1.099531700E+00 5.517700000E+01 1.997100000E+01 1.128000000E+00
1.105029400E+00 5.522780000E+01 1.986800000E+01 1.122000000E+00
1.110554500E+00 5.527720000E+01 1.976600000E+01 1.116000000E+00
1.116107300E+00 5.532540000E+01 1.966400000E+01 1.111000000E+00
1.121687800E+00 5.537240000E+01 1.956300000E+01 1.105000000E+00
1.127296300E+00 5.541820000E+01 1.946200000E+01 1.100000000E+00
1.132932800E+00 5.546290000E+01 1.936200000E+01 1.094000000E+00
1.138597400E+00 5.551070000E+01 1.926300000E+01 1.089000000E+00
1.144290400E+00 5.555330000E+01 1.916400000E+01 1.084000000E+00
1.150011900E+00 5.559450000E+01 1.906500000E+01 1.078000000E+00
1.155761900E+00 5.563450000E+01 1.896600000E+01 1.073000000E+00
1.161540700E+00 5.567330000E+01 1.886800000E+01 1.067000000E+00
1.167348400E+00 5.571100000E+01 1.877000000E+01 1.062000000E+00
1.173185200E+00 5.574740000E+01 1.867300000E+01 1.057000000E+00
1.179051100E+00 5.578280000E+01 1.857700000E+01 1.052000000E+00
1.184946400E+00 5.581700000E+01 1.848100000E+01 1.046000000E+00
1.190871100E+00 5.585010000E+01 1.838500000E+01 1.041000000E+00
1.196825400E+00 5.588210000E+01 1.829000000E+01 1.036000000E+00
1.202809600E+00 5.591310000E+01 1.819600000E+01 1.031000000E+00
1.208823600E+00 5.594300000E+01 1.810200000E+01 1.026000000E+00
1.214867700E+00 5.597190000E+01 1.800900000E+01 1.021000000E+00
1.220942100E+00 5.599970000E+01 1.791600000E+01 1.015000000E+00
1.227046800E+00 5.602660000E+01 1.782400000E+01 1.010000000E+00
1.233182000E+00 5.605240000E+01 1.773200000E+01 1.005000000E+00
1.239347900E+00 5.607720000E+01 1.764100000E+01 1.000000000E+00
1.245544700E+00 5.610110000E+01 1.755100000E+01 9.954000000E-01
1.251772400E+00 5.612400000E+01 1.746100000E+01 9.905000000E-01
1.258031200E+00 5.614600000E+01 1.737100000E+01 9.855000000E-01
1.264321400E+00 5.616700000E+01 1.728200000E+01 9.806000000E-01
1.270643000E+00 5.618700000E+01 1.719400000E+01 9.758000000E-01
1.276996200E+00 5.620610000E+01 1.710600000E+01 9.709000000E-01
1.283381200E+00 5.622440000E+01 1.701800000E+01 9.661000000E-01
1.289798100E+00 5.624170000E+01 1.693100000E+01 9.613000000E-01
1.296247100E+00 5.625810000E+01 1.684500000E+01 9.565000000E-01
1.302728300E+00 5.627360000E+01 1.675900000E+01 9.517000000E-01
1.309242000E+00 5.628820000E+01 1.667400000E+01 9.470000000E-01
