# Data retrieved from physics.nist.gov 03/01/2021
# Element, Ir  (Z = 77) 
# Atomic weight, g mol-1 = 192.2200 
# Nominal density, g cm-3 =  2.2390E+01 
# Relativistic correction estimate f_rel(5CL),  e atom-1 =  -9.4980E-01 
# Nuclear Thomson correction f_NT, e atom-1 =  -1.6921E-02 
#    E [keV]      f1 [e atom-1]      f2 [e atom-1]    Wavelength [nm] 
6.717466000E-03 4.568770000E+00 0.000000000E+00 1.846000000E+02
6.820284000E-03 4.165870000E+00 0.000000000E+00 1.818000000E+02
6.847702000E-03 3.735760000E+00 0.000000000E+00 1.811000000E+02
6.888830000E-03 4.142820000E+00 8.156900000E-01 1.800000000E+02
6.991648000E-03 4.457370000E+00 8.000300000E-01 1.773000000E+02
7.901491000E-03 4.031880000E+00 6.995000000E-01 1.569000000E+02
8.022432000E-03 3.532880000E+00 6.989100000E-01 1.545000000E+02
8.054683000E-03 2.968800000E+00 6.993100000E-01 1.539000000E+02
8.103059000E-03 3.532260000E+00 1.789300000E+00 1.530000000E+02
8.224000000E-03 3.993140000E+00 1.763500000E+00 1.508000000E+02
1.069000000E-02 3.388480000E+00 2.259600000E+00 1.160000000E+02
1.142761000E-02 2.965610000E+00 2.763000000E+00 1.085000000E+02
1.221612000E-02 2.550140000E+00 3.445100000E+00 1.015000000E+02
1.305903000E-02 2.188860000E+00 4.323400000E+00 9.494000000E+01
1.396010000E-02 1.941760000E+00 5.405800000E+00 8.881000000E+01
1.492335000E-02 1.880020000E+00 6.681500000E+00 8.308000000E+01
1.595306000E-02 2.078860000E+00 8.113000000E+00 7.772000000E+01
1.705382000E-02 2.605700000E+00 9.631500000E+00 7.270000000E+01
1.823053000E-02 3.505480000E+00 1.113800000E+01 6.801000000E+01
1.948844000E-02 4.786530000E+00 1.251500000E+01 6.362000000E+01
2.083314000E-02 6.444860000E+00 1.363800000E+01 5.951000000E+01
2.227063000E-02 8.330510000E+00 1.440200000E+01 5.567000000E+01
2.380730000E-02 1.035730000E+01 1.473600000E+01 5.208000000E+01
2.545001000E-02 1.242380000E+01 1.461600000E+01 4.872000000E+01
2.720606000E-02 1.432360000E+01 1.406900000E+01 4.557000000E+01
2.908327000E-02 1.598070000E+01 1.316300000E+01 4.263000000E+01
3.109002000E-02 1.731460000E+01 1.199400000E+01 3.988000000E+01
3.323523000E-02 1.828670000E+01 1.067000000E+01 3.731000000E+01
3.552846000E-02 1.889110000E+01 9.291800000E+00 3.490000000E+01
3.797993000E-02 1.914690000E+01 7.946900000E+00 3.264000000E+01
4.060054000E-02 1.908410000E+01 6.698900000E+00 3.054000000E+01
4.340198000E-02 1.871490000E+01 5.584600000E+00 2.857000000E+01
4.639671000E-02 1.796440000E+01 4.619000000E+00 2.672000000E+01
4.949000000E-02 1.615690000E+01 3.826100000E+00 2.505000000E+01
4.959809000E-02 1.601800000E+01 3.801700000E+00 2.500000000E+01
5.024750000E-02 1.447190000E+01 3.658800000E+00 2.467000000E+01
5.044950000E-02 1.251530000E+01 3.615800000E+00 2.458000000E+01
5.075250000E-02 1.453150000E+01 7.365400000E+00 2.443000000E+01
5.151000000E-02 1.623120000E+01 7.078000000E+00 2.407000000E+01
5.302035000E-02 1.722690000E+01 6.549200000E+00 2.338000000E+01
5.667876000E-02 1.769440000E+01 5.475500000E+00 2.187000000E+01
5.929000000E-02 1.735480000E+01 4.846200000E+00 2.091000000E+01
6.019750000E-02 1.697640000E+01 4.649900000E+00 2.060000000E+01
6.043950000E-02 1.665840000E+01 4.599400000E+00 2.051000000E+01
6.058959000E-02 1.669080000E+01 5.089800000E+00 2.046000000E+01
6.080250000E-02 1.683920000E+01 5.042400000E+00 2.039000000E+01
6.171000000E-02 1.673420000E+01 4.847100000E+00 2.009000000E+01
6.174000000E-02 1.672310000E+01 4.840800000E+00 2.008000000E+01
6.213200000E-02 1.652700000E+01 4.759800000E+00 1.995000000E+01
6.268500000E-02 1.592610000E+01 4.648800000E+00 1.978000000E+01
6.293700000E-02 1.495980000E+01 4.599500000E+00 1.970000000E+01
6.308300000E-02 1.509070000E+01 6.401900000E+00 1.965000000E+01
6.333660000E-02 1.574330000E+01 6.349300000E+00 1.958000000E+01
6.371700000E-02 1.638880000E+01 6.624500000E+00 1.946000000E+01
6.426000000E-02 1.685060000E+01 6.511700000E+00 1.929000000E+01
6.466800000E-02 1.706710000E+01 6.429100000E+00 1.917000000E+01
6.477028000E-02 1.711210000E+01 6.408700000E+00 1.914000000E+01
6.923942000E-02 1.790970000E+01 5.630600000E+00 1.791000000E+01
7.401695000E-02 1.803160000E+01 4.985000000E+00 1.675000000E+01
7.912411000E-02 1.787960000E+01 4.435400000E+00 1.567000000E+01
8.458368000E-02 1.753310000E+01 3.999100000E+00 1.466000000E+01
9.041995000E-02 1.702750000E+01 3.696000000E+00 1.371000000E+01
9.329600000E-02 1.673280000E+01 3.604700000E+00 1.329000000E+01
9.472400000E-02 1.655590000E+01 3.572900000E+00 1.309000000E+01
9.510480000E-02 1.647510000E+01 3.565900000E+00 1.304000000E+01
9.567600000E-02 1.646030000E+01 3.640400000E+00 1.296000000E+01
9.665893000E-02 1.639070000E+01 3.628600000E+00 1.283000000E+01
9.710400000E-02 1.635240000E+01 3.624500000E+00 1.277000000E+01
1.033284000E-01 1.574080000E+01 3.650600000E+00 1.200000000E+01
1.104581000E-01 1.499480000E+01 3.858300000E+00 1.122000000E+01
1.180797000E-01 1.419990000E+01 4.271500000E+00 1.050000000E+01
1.262272000E-01 1.338970000E+01 4.910700000E+00 9.822000000E+00
1.349368000E-01 1.260560000E+01 5.799300000E+00 9.188000000E+00
1.442475000E-01 1.189960000E+01 6.945600000E+00 8.595000000E+00
1.542005000E-01 1.133260000E+01 8.349900000E+00 8.040000000E+00
1.648404000E-01 1.096310000E+01 9.999700000E+00 7.521000000E+00
1.762144000E-01 1.085660000E+01 1.185300000E+01 7.036000000E+00
1.883732000E-01 1.111680000E+01 1.385600000E+01 6.582000000E+00
2.013709000E-01 1.172750000E+01 1.593600000E+01 6.157000000E+00
2.152655000E-01 1.266460000E+01 1.801100000E+01 5.760000000E+00
2.301188000E-01 1.396790000E+01 1.999300000E+01 5.388000000E+00
2.459970000E-01 1.560810000E+01 2.179700000E+01 5.040000000E+00
2.629708000E-01 1.751680000E+01 2.331500000E+01 4.715000000E+00
2.811158000E-01 1.952180000E+01 2.446200000E+01 4.410000000E+00
2.890020000E-01 2.026760000E+01 2.482000000E+01 4.290000000E+00
2.934255000E-01 2.049390000E+01 2.498700000E+01 4.225000000E+00
2.946051000E-01 2.032120000E+01 2.502700000E+01 4.208000000E+00
2.963745000E-01 2.079320000E+01 2.566900000E+01 4.183000000E+00
3.005128000E-01 2.145650000E+01 2.582000000E+01 4.126000000E+00
3.007980000E-01 2.149380000E+01 2.582900000E+01 4.122000000E+00
3.051720000E-01 2.200910000E+01 2.596800000E+01 4.063000000E+00
3.098430000E-01 2.239540000E+01 2.609500000E+01 4.002000000E+00
3.110886000E-01 2.231780000E+01 2.612600000E+01 3.985000000E+00
3.129570000E-01 2.276030000E+01 2.661500000E+01 3.962000000E+00
3.176280000E-01 2.349580000E+01 2.672900000E+01 3.903000000E+00
3.212482000E-01 2.397180000E+01 2.680500000E+01 3.859000000E+00
3.434143000E-01 2.650600000E+01 2.707300000E+01 3.610000000E+00
3.671099000E-01 2.882960000E+01 2.705700000E+01 3.377000000E+00
3.924405000E-01 3.096480000E+01 2.680700000E+01 3.159000000E+00
4.195189000E-01 3.288440000E+01 2.636900000E+01 2.955000000E+00
4.484657000E-01 3.453370000E+01 2.578800000E+01 2.765000000E+00
4.794098000E-01 3.567630000E+01 2.510300000E+01 2.586000000E+00
4.844140000E-01 3.571710000E+01 2.498900000E+01 2.559000000E+00
4.918285000E-01 3.536530000E+01 2.481900000E+01 2.521000000E+00
4.938057000E-01 3.463520000E+01 2.477400000E+01 2.511000000E+00
4.967715000E-01 3.559100000E+01 2.631100000E+01 2.496000000E+00
5.000000000E-01 3.748720000E+01 2.624100000E+01 2.480000000E+00
5.025000000E-01 3.778530000E+01 2.618600000E+01 2.467000000E+00
5.050125000E-01 3.803350000E+01 2.613100000E+01 2.455000000E+00
5.075375600E-01 3.825260000E+01 2.607600000E+01 2.443000000E+00
5.100752500E-01 3.845230000E+01 2.602000000E+01 2.431000000E+00
5.126256300E-01 3.863810000E+01 2.596400000E+01 2.419000000E+00
5.151887500E-01 3.881330000E+01 2.590800000E+01 2.407000000E+00
5.177647000E-01 3.898020000E+01 2.585200000E+01 2.395000000E+00
5.203535200E-01 3.914020000E+01 2.579500000E+01 2.383000000E+00
5.229552900E-01 3.929430000E+01 2.573800000E+01 2.371000000E+00
5.255700700E-01 3.944340000E+01 2.568100000E+01 2.359000000E+00
5.281979200E-01 3.958800000E+01 2.562400000E+01 2.347000000E+00
5.308389100E-01 3.972860000E+01 2.556600000E+01 2.336000000E+00
5.334931000E-01 3.986560000E+01 2.550800000E+01 2.324000000E+00
5.361605700E-01 3.999910000E+01 2.545000000E+01 2.312000000E+00
5.388413700E-01 4.012950000E+01 2.539200000E+01 2.301000000E+00
5.415355800E-01 4.025680000E+01 2.533300000E+01 2.289000000E+00
5.442432500E-01 4.038110000E+01 2.527400000E+01 2.278000000E+00
5.469644700E-01 4.050240000E+01 2.521500000E+01 2.267000000E+00
5.496992900E-01 4.062070000E+01 2.515600000E+01 2.255000000E+00
5.524477900E-01 4.073590000E+01 2.509700000E+01 2.244000000E+00
5.552100300E-01 4.084780000E+01 2.503700000E+01 2.233000000E+00
5.579860800E-01 4.095590000E+01 2.497700000E+01 2.222000000E+00
5.607760100E-01 4.105970000E+01 2.491700000E+01 2.211000000E+00
5.635798900E-01 4.115830000E+01 2.485700000E+01 2.200000000E+00
5.663977900E-01 4.124990000E+01 2.479700000E+01 2.189000000E+00
5.692297800E-01 4.133130000E+01 2.473600000E+01 2.178000000E+00
5.720759300E-01 4.139420000E+01 2.467500000E+01 2.167000000E+00
5.749363000E-01 4.140890000E+01 2.461400000E+01 2.156000000E+00
5.762631800E-01 4.134850000E+01 2.458600000E+01 2.152000000E+00
5.778109900E-01 4.138930000E+01 2.492500000E+01 2.146000000E+00
5.779367700E-01 4.141340000E+01 2.492300000E+01 2.145000000E+00
5.807000400E-01 4.169300000E+01 2.486600000E+01 2.135000000E+00
5.836035400E-01 4.187390000E+01 2.480600000E+01 2.124000000E+00
5.865215600E-01 4.202780000E+01 2.474600000E+01 2.114000000E+00
5.894541700E-01 4.216880000E+01 2.468600000E+01 2.103000000E+00
5.924014400E-01 4.230200000E+01 2.462600000E+01 2.093000000E+00
5.953634500E-01 4.242970000E+01 2.456600000E+01 2.082000000E+00
5.983402600E-01 4.255340000E+01 2.450500000E+01 2.072000000E+00
6.013319600E-01 4.267360000E+01 2.444400000E+01 2.062000000E+00
6.043386200E-01 4.279110000E+01 2.438400000E+01 2.052000000E+00
6.073603200E-01 4.290600000E+01 2.432300000E+01 2.041000000E+00
6.103971200E-01 4.301880000E+01 2.426200000E+01 2.031000000E+00
6.134491000E-01 4.312950000E+01 2.420000000E+01 2.021000000E+00
6.165163500E-01 4.323830000E+01 2.413900000E+01 2.011000000E+00
6.195989300E-01 4.334530000E+01 2.407800000E+01 2.001000000E+00
6.226969300E-01 4.345050000E+01 2.401600000E+01 1.991000000E+00
6.258104100E-01 4.355410000E+01 2.395400000E+01 1.981000000E+00
6.289394600E-01 4.365600000E+01 2.389200000E+01 1.971000000E+00
6.320841600E-01 4.375630000E+01 2.383100000E+01 1.962000000E+00
6.352445800E-01 4.385490000E+01 2.376800000E+01 1.952000000E+00
6.384208000E-01 4.395180000E+01 2.370600000E+01 1.942000000E+00
6.416129100E-01 4.404710000E+01 2.364400000E+01 1.932000000E+00
6.448209700E-01 4.414050000E+01 2.358200000E+01 1.923000000E+00
6.480450800E-01 4.423210000E+01 2.351900000E+01 1.913000000E+00
6.512853000E-01 4.432160000E+01 2.345700000E+01 1.904000000E+00
6.545417300E-01 4.440900000E+01 2.339400000E+01 1.894000000E+00
6.578144400E-01 4.449390000E+01 2.333100000E+01 1.885000000E+00
6.611035100E-01 4.457620000E+01 2.326800000E+01 1.875000000E+00
6.644090300E-01 4.465520000E+01 2.320500000E+01 1.866000000E+00
6.677310700E-01 4.473040000E+01 2.314200000E+01 1.857000000E+00
6.710697300E-01 4.480080000E+01 2.307900000E+01 1.848000000E+00
6.744250800E-01 4.486480000E+01 2.301500000E+01 1.838000000E+00
6.777972000E-01 4.491970000E+01 2.295200000E+01 1.829000000E+00
6.811861900E-01 4.496010000E+01 2.288900000E+01 1.820000000E+00
6.845921200E-01 4.497220000E+01 2.282500000E+01 1.811000000E+00
6.880150800E-01 4.489940000E+01 2.276100000E+01 1.802000000E+00
6.889958500E-01 4.481690000E+01 2.274300000E+01 1.799000000E+00
6.912041700E-01 4.487640000E+01 2.324200000E+01 1.794000000E+00
6.914551500E-01 4.491830000E+01 2.323700000E+01 1.793000000E+00
6.949124300E-01 4.522830000E+01 2.317400000E+01 1.784000000E+00
6.983869900E-01 4.541350000E+01 2.311100000E+01 1.775000000E+00
7.018789300E-01 4.556520000E+01 2.304800000E+01 1.766000000E+00
7.053883200E-01 4.570080000E+01 2.298500000E+01 1.758000000E+00
7.089152600E-01 4.582660000E+01 2.292100000E+01 1.749000000E+00
7.124598400E-01 4.594570000E+01 2.285800000E+01 1.740000000E+00
7.160221400E-01 4.606000000E+01 2.279400000E+01 1.732000000E+00
7.196022500E-01 4.617050000E+01 2.273100000E+01 1.723000000E+00
7.232002600E-01 4.627790000E+01 2.266700000E+01 1.714000000E+00
7.268162600E-01 4.638280000E+01 2.260400000E+01 1.706000000E+00
7.304503400E-01 4.648550000E+01 2.254000000E+01 1.697000000E+00
7.341026000E-01 4.658620000E+01 2.247600000E+01 1.689000000E+00
7.377731100E-01 4.668520000E+01 2.241200000E+01 1.681000000E+00
7.414619700E-01 4.678270000E+01 2.234900000E+01 1.672000000E+00
7.451692800E-01 4.687870000E+01 2.228500000E+01 1.664000000E+00
7.488951300E-01 4.697350000E+01 2.222100000E+01 1.656000000E+00
7.526396100E-01 4.706700000E+01 2.215700000E+01 1.647000000E+00
7.564028000E-01 4.715940000E+01 2.209300000E+01 1.639000000E+00
7.601848200E-01 4.725070000E+01 2.202900000E+01 1.631000000E+00
7.639857400E-01 4.734100000E+01 2.196400000E+01 1.623000000E+00
7.678056700E-01 4.743030000E+01 2.190000000E+01 1.615000000E+00
7.716447000E-01 4.751870000E+01 2.183600000E+01 1.607000000E+00
7.755029200E-01 4.760630000E+01 2.177200000E+01 1.599000000E+00
7.793804400E-01 4.769290000E+01 2.170700000E+01 1.591000000E+00
7.832773400E-01 4.777870000E+01 2.164300000E+01 1.583000000E+00
7.871937300E-01 4.786370000E+01 2.157800000E+01 1.575000000E+00
7.911296900E-01 4.794790000E+01 2.151400000E+01 1.567000000E+00
7.950853400E-01 4.803140000E+01 2.144900000E+01 1.559000000E+00
7.990607700E-01 4.811410000E+01 2.138500000E+01 1.552000000E+00
8.030560700E-01 4.819610000E+01 2.132000000E+01 1.544000000E+00
8.070713500E-01 4.827730000E+01 2.125600000E+01 1.536000000E+00
8.111067100E-01 4.835790000E+01 2.119100000E+01 1.529000000E+00
8.151622400E-01 4.843780000E+01 2.112600000E+01 1.521000000E+00
8.192380600E-01 4.851710000E+01 2.106200000E+01 1.513000000E+00
8.233342500E-01 4.859570000E+01 2.099700000E+01 1.506000000E+00
8.274509200E-01 4.867370000E+01 2.093200000E+01 1.498000000E+00
8.315881700E-01 4.875110000E+01 2.086700000E+01 1.491000000E+00
8.357461100E-01 4.882800000E+01 2.080300000E+01 1.484000000E+00
8.399248400E-01 4.890410000E+01 2.073700000E+01 1.476000000E+00
8.441244700E-01 4.897950000E+01 2.067100000E+01 1.469000000E+00
8.483450900E-01 4.905410000E+01 2.060500000E+01 1.461000000E+00
8.525868200E-01 4.912810000E+01 2.053900000E+01 1.454000000E+00
8.568497500E-01 4.920140000E+01 2.047400000E+01 1.447000000E+00
8.611340000E-01 4.927400000E+01 2.040800000E+01 1.440000000E+00
8.654396700E-01 4.934600000E+01 2.034200000E+01 1.433000000E+00
8.697668700E-01 4.941730000E+01 2.027600000E+01 1.425000000E+00
8.741157000E-01 4.948800000E+01 2.021000000E+01 1.418000000E+00
8.784862800E-01 4.955800000E+01 2.014400000E+01 1.411000000E+00
8.828787100E-01 4.962750000E+01 2.007800000E+01 1.404000000E+00
8.872931000E-01 4.970900000E+01 2.001200000E+01 1.397000000E+00
8.917295700E-01 4.977730000E+01 1.994600000E+01 1.390000000E+00
8.961882200E-01 4.984500000E+01 1.988000000E+01 1.383000000E+00
9.006691600E-01 4.991210000E+01 1.981400000E+01 1.377000000E+00
9.051725000E-01 4.997870000E+01 1.974900000E+01 1.370000000E+00
9.096983700E-01 5.004460000E+01 1.968300000E+01 1.363000000E+00
9.142468600E-01 5.011000000E+01 1.961700000E+01 1.356000000E+00
9.188180900E-01 5.017480000E+01 1.955100000E+01 1.349000000E+00
9.234121800E-01 5.023910000E+01 1.948500000E+01 1.343000000E+00
9.280292400E-01 5.030290000E+01 1.942000000E+01 1.336000000E+00
9.326693900E-01 5.036610000E+01 1.935400000E+01 1.329000000E+00
9.373327400E-01 5.043650000E+01 1.928800000E+01 1.323000000E+00
9.420194000E-01 5.049880000E+01 1.922300000E+01 1.316000000E+00
9.467295000E-01 5.056060000E+01 1.915700000E+01 1.310000000E+00
9.514631500E-01 5.062190000E+01 1.909100000E+01 1.303000000E+00
9.562204600E-01 5.068280000E+01 1.902600000E+01 1.297000000E+00
9.610015600E-01 5.074320000E+01 1.896000000E+01 1.290000000E+00
9.658065700E-01 5.080310000E+01 1.889400000E+01 1.284000000E+00
9.706356000E-01 5.086270000E+01 1.882900000E+01 1.277000000E+00
9.754887800E-01 5.092200000E+01 1.876400000E+01 1.271000000E+00
9.803662300E-01 5.098080000E+01 1.869800000E+01 1.265000000E+00
9.852680600E-01 5.103920000E+01 1.863200000E+01 1.258000000E+00
9.901944000E-01 5.109740000E+01 1.856700000E+01 1.252000000E+00
9.951453700E-01 5.115530000E+01 1.850100000E+01 1.246000000E+00
1.000121100E+00 5.121330000E+01 1.843500000E+01 1.240000000E+00
1.005121700E+00 5.128310000E+01 1.834900000E+01 1.234000000E+00
1.010147300E+00 5.135070000E+01 1.826300000E+01 1.227000000E+00
1.015198000E+00 5.141600000E+01 1.817700000E+01 1.221000000E+00
1.020274000E+00 5.147930000E+01 1.809200000E+01 1.215000000E+00
1.025375400E+00 5.154050000E+01 1.800700000E+01 1.209000000E+00
1.030502300E+00 5.159980000E+01 1.792200000E+01 1.203000000E+00
1.035654800E+00 5.165730000E+01 1.783700000E+01 1.197000000E+00
1.040833100E+00 5.171310000E+01 1.775300000E+01 1.191000000E+00
1.046037200E+00 5.176710000E+01 1.767000000E+01 1.185000000E+00
1.051267400E+00 5.181960000E+01 1.758600000E+01 1.179000000E+00
1.056523800E+00 5.187050000E+01 1.750300000E+01 1.174000000E+00
1.061806400E+00 5.191990000E+01 1.742000000E+01 1.168000000E+00
1.067115400E+00 5.196790000E+01 1.733800000E+01 1.162000000E+00
1.072451000E+00 5.201450000E+01 1.725600000E+01 1.156000000E+00
1.077813200E+00 5.205980000E+01 1.717400000E+01 1.150000000E+00
1.083202300E+00 5.210390000E+01 1.709300000E+01 1.145000000E+00
1.088618300E+00 5.214660000E+01 1.701200000E+01 1.139000000E+00
1.094061400E+00 5.218820000E+01 1.693100000E+01 1.133000000E+00
1.099531700E+00 5.222860000E+01 1.685100000E+01 1.128000000E+00
1.105029400E+00 5.226790000E+01 1.677100000E+01 1.122000000E+00
1.110554500E+00 5.230620000E+01 1.669200000E+01 1.116000000E+00
1.116107300E+00 5.234340000E+01 1.661300000E+01 1.111000000E+00
1.121687800E+00 5.237950000E+01 1.653400000E+01 1.105000000E+00
1.127296300E+00 5.241470000E+01 1.645600000E+01 1.100000000E+00
1.132932800E+00 5.244900000E+01 1.637800000E+01 1.094000000E+00
1.138597400E+00 5.248250000E+01 1.629700000E+01 1.089000000E+00
1.144290400E+00 5.251490000E+01 1.621100000E+01 1.084000000E+00
1.150011900E+00 5.254620000E+01 1.612600000E+01 1.078000000E+00
1.155761900E+00 5.257620000E+01 1.604100000E+01 1.073000000E+00
1.161540700E+00 5.260520000E+01 1.595700000E+01 1.067000000E+00
1.167348400E+00 5.263310000E+01 1.587300000E+01 1.062000000E+00
1.173185200E+00 5.265980000E+01 1.579000000E+01 1.057000000E+00
1.179051100E+00 5.268550000E+01 1.570700000E+01 1.052000000E+00
1.184946400E+00 5.270990000E+01 1.561600000E+01 1.046000000E+00
1.190871100E+00 5.273250000E+01 1.552400000E+01 1.041000000E+00
1.196825400E+00 5.275350000E+01 1.542700000E+01 1.036000000E+00
1.202809600E+00 5.277250000E+01 1.533100000E+01 1.031000000E+00
1.208823600E+00 5.278960000E+01 1.523500000E+01 1.026000000E+00
1.214867700E+00 5.280500000E+01 1.514100000E+01 1.021000000E+00
1.220942100E+00 5.281860000E+01 1.504700000E+01 1.015000000E+00
1.227046800E+00 5.283050000E+01 1.495400000E+01 1.010000000E+00
1.233182000E+00 5.284070000E+01 1.486100000E+01 1.005000000E+00
1.239347900E+00 5.284930000E+01 1.477000000E+01 1.000000000E+00
1.245544700E+00 5.285640000E+01 1.467900000E+01 9.954000000E-01
1.251772400E+00 5.286160000E+01 1.458300000E+01 9.905000000E-01
1.258031200E+00 5.286490000E+01 1.448800000E+01 9.855000000E-01
1.264321400E+00 5.286630000E+01 1.439300000E+01 9.806000000E-01
1.270643000E+00 5.286570000E+01 1.430000000E+01 9.758000000E-01
1.276996200E+00 5.286320000E+01 1.420700000E+01 9.709000000E-01
1.283381200E+00 5.285900000E+01 1.411500000E+01 9.661000000E-01
1.289798100E+00 5.285290000E+01 1.402300000E+01 9.613000000E-01
1.296247100E+00 5.284500000E+01 1.393300000E+01 9.565000000E-01
