# Data retrieved from physics.nist.gov 03/01/2021
# Element, Ni  (Z = 28) 
# Atomic weight, g mol-1 = 58.69000 
# Nominal density, g cm-3 =  8.8760 
# Relativistic correction estimate f_rel(5CL),  e atom-1 =  -8.1000E-02 
# Nuclear Thomson correction f_NT, e atom-1 =  -7.3281E-03 
#    E [keV]      f1 [e atom-1]      f2 [e atom-1]    Wavelength [nm] 
1.069000000E-02 3.576590000E+00 1.434300000E+00 1.160000000E+02
1.142761000E-02 3.575990000E+00 1.544800000E+00 1.085000000E+02
1.221612000E-02 3.570950000E+00 1.667000000E+00 1.015000000E+02
1.305903000E-02 3.568360000E+00 1.801700000E+00 9.494000000E+01
1.396010000E-02 3.569680000E+00 1.950000000E+00 8.881000000E+01
1.492335000E-02 3.576850000E+00 2.112500000E+00 8.308000000E+01
1.595306000E-02 3.591510000E+00 2.288400000E+00 7.772000000E+01
1.705382000E-02 3.614760000E+00 2.477800000E+00 7.270000000E+01
1.823053000E-02 3.647910000E+00 2.680800000E+00 6.801000000E+01
1.948844000E-02 3.692360000E+00 2.897400000E+00 6.362000000E+01
2.083314000E-02 3.749580000E+00 3.127200000E+00 5.951000000E+01
2.227063000E-02 3.821030000E+00 3.369900000E+00 5.567000000E+01
2.380730000E-02 3.908180000E+00 3.625000000E+00 5.208000000E+01
2.545001000E-02 4.012450000E+00 3.892000000E+00 4.872000000E+01
2.720606000E-02 4.135210000E+00 4.169900000E+00 4.557000000E+01
2.908327000E-02 4.277780000E+00 4.458100000E+00 4.263000000E+01
3.109002000E-02 4.441440000E+00 4.755700000E+00 3.988000000E+01
3.323523000E-02 4.627390000E+00 5.061600000E+00 3.731000000E+01
3.552846000E-02 4.836860000E+00 5.375100000E+00 3.490000000E+01
3.797993000E-02 5.071050000E+00 5.695400000E+00 3.264000000E+01
4.060054000E-02 5.331240000E+00 6.021600000E+00 3.054000000E+01
4.340198000E-02 5.618840000E+00 6.353200000E+00 2.857000000E+01
4.639671000E-02 5.935340000E+00 6.689700000E+00 2.672000000E+01
4.959809000E-02 6.282280000E+00 7.030900000E+00 2.500000000E+01
5.302035000E-02 6.721880000E+00 7.351600000E+00 2.338000000E+01
5.667876000E-02 7.166430000E+00 7.642900000E+00 2.187000000E+01
6.058959000E-02 7.589190000E+00 7.922500000E+00 2.046000000E+01
6.477028000E-02 7.899840000E+00 8.188900000E+00 1.914000000E+01
6.673800000E-02 7.810830000E+00 8.303900000E+00 1.858000000E+01
6.775950000E-02 7.292480000E+00 8.348300000E+00 1.830000000E+01
6.803190000E-02 6.492660000E+00 8.341100000E+00 1.822000000E+01
6.844050000E-02 7.476790000E+00 1.000500000E+01 1.812000000E+01
6.923942000E-02 8.304260000E+00 9.919700000E+00 1.791000000E+01
6.946200000E-02 8.444580000E+00 9.896400000E+00 1.785000000E+01
7.401695000E-02 9.928980000E+00 9.452200000E+00 1.675000000E+01
7.912411000E-02 1.076770000E+01 9.042000000E+00 1.567000000E+01
8.458368000E-02 1.139130000E+01 8.708600000E+00 1.466000000E+01
9.041995000E-02 1.190940000E+01 8.412800000E+00 1.371000000E+01
9.665893000E-02 1.234870000E+01 8.136200000E+00 1.283000000E+01
1.033284000E-01 1.270320000E+01 7.871500000E+00 1.200000000E+01
1.095640000E-01 1.285840000E+01 7.646900000E+00 1.132000000E+01
1.104581000E-01 1.283040000E+01 7.616400000E+00 1.122000000E+01
1.112410000E-01 1.274380000E+01 7.589900000E+00 1.115000000E+01
1.116882000E-01 1.253640000E+01 7.574900000E+00 1.110000000E+01
1.123590000E-01 1.279400000E+01 7.999400000E+00 1.103000000E+01
1.140360000E-01 1.306690000E+01 7.951400000E+00 1.087000000E+01
1.180797000E-01 1.339340000E+01 7.840900000E+00 1.050000000E+01
1.262272000E-01 1.384590000E+01 7.639000000E+00 9.822000000E+00
1.349368000E-01 1.423290000E+01 7.447200000E+00 9.188000000E+00
1.442475000E-01 1.458690000E+01 7.264700000E+00 8.595000000E+00
1.542005000E-01 1.491960000E+01 7.091100000E+00 8.040000000E+00
1.648404000E-01 1.523780000E+01 6.925000000E+00 7.521000000E+00
1.762144000E-01 1.554590000E+01 6.764400000E+00 7.036000000E+00
1.883732000E-01 1.584660000E+01 6.606400000E+00 6.582000000E+00
2.013709000E-01 1.614130000E+01 6.448000000E+00 6.157000000E+00
2.152655000E-01 1.643840000E+01 6.286200000E+00 5.760000000E+00
2.301188000E-01 1.672000000E+01 6.118300000E+00 5.388000000E+00
2.459970000E-01 1.699270000E+01 5.942000000E+00 5.040000000E+00
2.629708000E-01 1.725370000E+01 5.756000000E+00 4.715000000E+00
2.811158000E-01 1.750080000E+01 5.559200000E+00 4.410000000E+00
3.005128000E-01 1.772920000E+01 5.348600000E+00 4.126000000E+00
3.212482000E-01 1.793300000E+01 5.125400000E+00 3.859000000E+00
3.434143000E-01 1.810620000E+01 4.892400000E+00 3.610000000E+00
3.671099000E-01 1.824710000E+01 4.652600000E+00 3.377000000E+00
3.924405000E-01 1.835080000E+01 4.409200000E+00 3.159000000E+00
4.195189000E-01 1.841350000E+01 4.165000000E+00 2.955000000E+00
4.484657000E-01 1.843100000E+01 3.923000000E+00 2.765000000E+00
4.794098000E-01 1.839770000E+01 3.685400000E+00 2.586000000E+00
5.124891000E-01 1.830550000E+01 3.453900000E+00 2.419000000E+00
5.478508000E-01 1.814270000E+01 3.230400000E+00 2.263000000E+00
5.856525000E-01 1.789050000E+01 3.016100000E+00 2.117000000E+00
6.260625000E-01 1.751780000E+01 2.811700000E+00 1.980000000E+00
6.692609000E-01 1.696810000E+01 2.618000000E+00 1.853000000E+00
7.154399000E-01 1.612690000E+01 2.435200000E+00 1.733000000E+00
7.648052000E-01 1.470790000E+01 2.263200000E+00 1.621000000E+00
8.175768000E-01 1.158210000E+01 2.102100000E+00 1.516000000E+00
8.376060000E-01 8.769610000E+00 2.046200000E+00 1.480000000E+00
8.504265000E-01 3.938190000E+00 2.011900000E+00 1.458000000E+00
8.544620000E-01 -5.447050000E+00 2.001300000E+00 1.451000000E+00
8.589735000E-01 3.452850000E+00 1.191800000E+01 1.443000000E+00
8.675405000E-01 5.487840000E+00 1.173500000E+01 1.429000000E+00
8.710281000E-01 3.822840000E+00 1.166200000E+01 1.423000000E+00
8.717940000E-01 6.874900000E-01 1.164600000E+01 1.422000000E+00
8.739896000E-01 5.809600000E+00 1.650800000E+01 1.419000000E+00
8.762595000E-01 7.369680000E+00 1.644200000E+01 1.415000000E+00
8.893380000E-01 1.127890000E+01 1.606600000E+01 1.394000000E+00
9.342948000E-01 1.623450000E+01 1.487700000E+01 1.327000000E+00
9.879380000E-01 1.842580000E+01 1.364900000E+01 1.255000000E+00
9.987612000E-01 1.841330000E+01 1.342400000E+01 1.241000000E+00
1.003060000E+00 1.822310000E+01 1.333400000E+01 1.236000000E+00
1.007092000E+00 1.744720000E+01 1.325100000E+01 1.231000000E+00
1.013141000E+00 1.856890000E+01 1.493300000E+01 1.224000000E+00
1.028262000E+00 1.986540000E+01 1.461500000E+01 1.206000000E+00
1.067676000E+00 2.153740000E+01 1.384100000E+01 1.161000000E+00
1.141345000E+00 2.337360000E+01 1.259900000E+01 1.086000000E+00
1.220098000E+00 2.462510000E+01 1.148500000E+01 1.016000000E+00
1.304285000E+00 2.555910000E+01 1.047500000E+01 9.506000000E-01
1.394281000E+00 2.628180000E+01 9.526400000E+00 8.892000000E-01
1.490486000E+00 2.685060000E+01 8.632300000E+00 8.318000000E-01
1.593329000E+00 2.725440000E+01 7.775300000E+00 7.781000000E-01
1.703269000E+00 2.753580000E+01 7.001200000E+00 7.279000000E-01
1.820795000E+00 2.773000000E+01 6.303900000E+00 6.809000000E-01
1.946430000E+00 2.786030000E+01 5.677700000E+00 6.370000000E-01
2.080733000E+00 2.798550000E+01 5.109500000E+00 5.959000000E-01
2.224304000E+00 2.802890000E+01 4.592000000E+00 5.574000000E-01
2.377781000E+00 2.804050000E+01 4.128500000E+00 5.214000000E-01
2.541848000E+00 2.802990000E+01 3.713800000E+00 4.878000000E-01
2.717235000E+00 2.800160000E+01 3.343000000E+00 4.563000000E-01
2.904724000E+00 2.796590000E+01 3.011400000E+00 4.268000000E-01
3.105150000E+00 2.793860000E+01 2.698100000E+00 3.993000000E-01
3.319406000E+00 2.788470000E+01 2.405500000E+00 3.735000000E-01
3.548445000E+00 2.781650000E+01 2.139200000E+00 3.494000000E-01
3.793288000E+00 2.773400000E+01 1.897000000E+00 3.269000000E-01
4.055024000E+00 2.764250000E+01 1.684400000E+00 3.058000000E-01
4.334821000E+00 2.754580000E+01 1.497600000E+00 2.860000000E-01
4.633924000E+00 2.744350000E+01 1.326900000E+00 2.676000000E-01
4.953664000E+00 2.733220000E+01 1.176100000E+00 2.503000000E-01
5.295467000E+00 2.721140000E+01 1.043300000E+00 2.341000000E-01
5.660855000E+00 2.707790000E+01 9.264500000E-01 2.190000000E-01
6.051453000E+00 2.692540000E+01 8.234200000E-01 2.049000000E-01
6.469004000E+00 2.674180000E+01 7.325400000E-01 1.917000000E-01
6.915365000E+00 2.650230000E+01 6.522900000E-01 1.793000000E-01
7.392525000E+00 2.614540000E+01 5.813800000E-01 1.677000000E-01
7.902609000E+00 2.543820000E+01 5.186600000E-01 1.569000000E-01
8.166144000E+00 2.451870000E+01 4.905100000E-01 1.518000000E-01
8.291136000E+00 2.308620000E+01 4.780400000E-01 1.495000000E-01
8.324467000E+00 2.135770000E+01 4.748000000E-01 1.489000000E-01
8.374464000E+00 2.312290000E+01 3.878300000E+00 1.481000000E-01
8.447890000E+00 2.428660000E+01 3.812700000E+00 1.468000000E-01
8.499456000E+00 2.471810000E+01 3.767700000E+00 1.459000000E-01
9.030794000E+00 2.637860000E+01 3.401700000E+00 1.373000000E-01
9.653919000E+00 2.712160000E+01 3.070900000E+00 1.284000000E-01
1.032004000E+01 2.756540000E+01 2.749200000E+00 1.201000000E-01
1.103212000E+01 2.784530000E+01 2.448500000E+00 1.124000000E-01
1.179334000E+01 2.803110000E+01 2.183800000E+00 1.051000000E-01
1.260708000E+01 2.815830000E+01 1.947800000E+00 9.834000000E-02
1.347697000E+01 2.824540000E+01 1.737600000E+00 9.200000000E-02
1.440688000E+01 2.830430000E+01 1.550200000E+00 8.606000000E-02
1.540095000E+01 2.834320000E+01 1.383100000E+00 8.050000000E-02
1.646362000E+01 2.836820000E+01 1.234100000E+00 7.531000000E-02
1.759961000E+01 2.841920000E+01 1.094200000E+00 7.045000000E-02
1.881398000E+01 2.841940000E+01 9.690200000E-01 6.590000000E-02
2.011215000E+01 2.841200000E+01 8.582000000E-01 6.165000000E-02
2.149988000E+01 2.839960000E+01 7.601300000E-01 5.767000000E-02
2.298338000E+01 2.838390000E+01 6.728200000E-01 5.395000000E-02
2.456923000E+01 2.836630000E+01 5.955900000E-01 5.046000000E-02
2.626450000E+01 2.834790000E+01 5.272500000E-01 4.721000000E-02
2.807676000E+01 2.832900000E+01 4.646100000E-01 4.416000000E-02
3.001405000E+01 2.830860000E+01 4.088100000E-01 4.131000000E-02
3.208502000E+01 2.828800000E+01 3.597200000E-01 3.864000000E-02
3.429889000E+01 2.826780000E+01 3.165500000E-01 3.615000000E-02
3.666551000E+01 2.824840000E+01 2.782100000E-01 3.381000000E-02
3.919543000E+01 2.822950000E+01 2.434700000E-01 3.163000000E-02
4.189992000E+01 2.821100000E+01 2.130700000E-01 2.959000000E-02
4.479101000E+01 2.819340000E+01 1.864700000E-01 2.768000000E-02
4.788159000E+01 2.817680000E+01 1.632000000E-01 2.589000000E-02
5.118542000E+01 2.816130000E+01 1.428400000E-01 2.422000000E-02
5.471721000E+01 2.814680000E+01 1.250200000E-01 2.266000000E-02
5.849270000E+01 2.813340000E+01 1.094300000E-01 2.120000000E-02
6.252870000E+01 2.812110000E+01 9.577800000E-02 1.983000000E-02
6.684318000E+01 2.810970000E+01 8.383600000E-02 1.855000000E-02
7.145536000E+01 2.809940000E+01 7.338500000E-02 1.735000000E-02
7.638578000E+01 2.808990000E+01 6.423900000E-02 1.623000000E-02
8.165640000E+01 2.808130000E+01 5.615500000E-02 1.518000000E-02
8.729069000E+01 2.807340000E+01 4.893400000E-02 1.420000000E-02
9.331374000E+01 2.806620000E+01 4.264200000E-02 1.329000000E-02
9.975239000E+01 2.805960000E+01 3.716100000E-02 1.243000000E-02
1.066353000E+02 2.805360000E+01 3.238500000E-02 1.163000000E-02
1.139931000E+02 2.804810000E+01 2.822400000E-02 1.088000000E-02
1.218587000E+02 2.804320000E+01 2.459800000E-02 1.017000000E-02
1.302669000E+02 2.803870000E+01 2.143800000E-02 9.518000000E-03
1.392553000E+02 2.803470000E+01 1.868500000E-02 8.903000000E-03
1.488640000E+02 2.803110000E+01 1.628600000E-02 8.329000000E-03
1.591356000E+02 2.802780000E+01 1.419600000E-02 7.791000000E-03
1.701159000E+02 2.802480000E+01 1.237400000E-02 7.288000000E-03
1.818539000E+02 2.802220000E+01 1.078600000E-02 6.818000000E-03
1.944018000E+02 2.801980000E+01 9.402000000E-03 6.378000000E-03
2.078156000E+02 2.801770000E+01 8.196000000E-03 5.966000000E-03
2.221548000E+02 2.801580000E+01 7.144800000E-03 5.581000000E-03
2.374835000E+02 2.801410000E+01 6.228600000E-03 5.221000000E-03
2.538699000E+02 2.801250000E+01 5.430000000E-03 4.884000000E-03
2.713869000E+02 2.801120000E+01 4.733900000E-03 4.569000000E-03
2.901126000E+02 2.800990000E+01 4.127200000E-03 4.274000000E-03
3.101304000E+02 2.800880000E+01 3.598300000E-03 3.998000000E-03
3.315294000E+02 2.800790000E+01 3.137300000E-03 3.740000000E-03
3.544049000E+02 2.800700000E+01 2.735400000E-03 3.498000000E-03
3.788588000E+02 2.800620000E+01 2.385000000E-03 3.273000000E-03
4.050001000E+02 2.800550000E+01 2.079600000E-03 3.061000000E-03
4.329451000E+02 2.800490000E+01 1.813300000E-03 2.864000000E-03
