# Data retrieved from physics.nist.gov 03/01/2021
# Element, Pt  (Z = 78) 
# Atomic weight, g mol-1 = 195.0800 
# Nominal density, g cm-3 =  2.1410E+01 
# Relativistic correction estimate f_rel(5CL),  e atom-1 =  -9.8160E-01 
# Nuclear Thomson correction f_NT, e atom-1 =  -1.7109E-02 
#    E [keV]      f1 [e atom-1]      f2 [e atom-1]    Wavelength [nm] 
6.002872000E-03 3.459680000E+00 0.000000000E+00 2.065000000E+02
6.094753000E-03 2.907840000E+00 0.000000000E+00 2.034000000E+02
6.119254000E-03 2.304280000E+00 0.000000000E+00 2.026000000E+02
6.156007000E-03 2.881780000E+00 1.155100000E+00 2.014000000E+02
6.247887000E-03 3.346620000E+00 1.148100000E+00 1.984000000E+02
7.291108000E-03 3.097850000E+00 1.129900000E+00 1.700000000E+02
7.402706000E-03 2.657940000E+00 1.144300000E+00 1.675000000E+02
7.432466000E-03 2.166310000E+00 1.148700000E+00 1.668000000E+02
7.477105000E-03 2.649670000E+00 2.101800000E+00 1.658000000E+02
7.588704000E-03 3.042640000E+00 2.102600000E+00 1.634000000E+02
1.069000000E-02 2.242080000E+00 3.680000000E+00 1.160000000E+02
1.142761000E-02 1.990020000E+00 4.420100000E+00 1.085000000E+02
1.221612000E-02 1.819420000E+00 5.311300000E+00 1.015000000E+02
1.305903000E-02 1.775520000E+00 6.346900000E+00 9.494000000E+01
1.396010000E-02 1.906300000E+00 7.506800000E+00 8.881000000E+01
1.492335000E-02 2.257710000E+00 8.754300000E+00 8.308000000E+01
1.595306000E-02 2.867020000E+00 1.003500000E+01 7.772000000E+01
1.705382000E-02 3.755490000E+00 1.128000000E+01 7.270000000E+01
1.823053000E-02 4.921720000E+00 1.241100000E+01 6.801000000E+01
1.948844000E-02 6.401790000E+00 1.334900000E+01 6.362000000E+01
2.083314000E-02 8.013440000E+00 1.402400000E+01 5.951000000E+01
2.227063000E-02 9.744870000E+00 1.438700000E+01 5.567000000E+01
2.380730000E-02 1.155010000E+01 1.441600000E+01 5.208000000E+01
2.545001000E-02 1.325610000E+01 1.411700000E+01 4.872000000E+01
2.720606000E-02 1.481940000E+01 1.351700000E+01 4.557000000E+01
2.908327000E-02 1.617200000E+01 1.267500000E+01 4.263000000E+01
3.109002000E-02 1.727180000E+01 1.166100000E+01 3.988000000E+01
3.323523000E-02 1.809570000E+01 1.054300000E+01 3.731000000E+01
3.552846000E-02 1.864140000E+01 9.390300000E+00 3.490000000E+01
3.797993000E-02 1.892200000E+01 8.261300000E+00 3.264000000E+01
4.060054000E-02 1.895300000E+01 7.197100000E+00 3.054000000E+01
4.340198000E-02 1.873550000E+01 6.223800000E+00 2.857000000E+01
4.639671000E-02 1.821310000E+01 5.354500000E+00 2.672000000E+01
4.959809000E-02 1.702190000E+01 4.592500000E+00 2.500000000E+01
5.066600000E-02 1.610270000E+01 4.371400000E+00 2.447000000E+01
5.144150000E-02 1.427920000E+01 4.220000000E+00 2.410000000E+01
5.164830000E-02 1.211300000E+01 4.180900000E+00 2.401000000E+01
5.195850000E-02 1.438730000E+01 8.373200000E+00 2.386000000E+01
5.273400000E-02 1.634010000E+01 8.073100000E+00 2.351000000E+01
5.302035000E-02 1.667910000E+01 7.966200000E+00 2.338000000E+01
5.667876000E-02 1.823650000E+01 6.761000000E+00 2.187000000E+01
6.058959000E-02 1.836220000E+01 5.733900000E+00 2.046000000E+01
6.399400000E-02 1.765270000E+01 5.007300000E+00 1.937000000E+01
6.477028000E-02 1.708740000E+01 4.860600000E+00 1.914000000E+01
6.497350000E-02 1.678490000E+01 4.823200000E+00 1.908000000E+01
6.523470000E-02 1.578400000E+01 4.775800000E+00 1.901000000E+01
6.562650000E-02 1.677720000E+01 6.648700000E+00 1.889000000E+01
6.660600000E-02 1.760180000E+01 6.464800000E+00 1.861000000E+01
6.923942000E-02 1.806720000E+01 6.015900000E+00 1.791000000E+01
6.967800000E-02 1.806610000E+01 5.947000000E+00 1.779000000E+01
7.074450000E-02 1.788930000E+01 5.786000000E+00 1.753000000E+01
7.102890000E-02 1.759070000E+01 5.744600000E+00 1.746000000E+01
7.145550000E-02 1.794280000E+01 6.302500000E+00 1.735000000E+01
7.252200000E-02 1.825070000E+01 6.130400000E+00 1.710000000E+01
7.281400000E-02 1.828570000E+01 6.084000000E+00 1.703000000E+01
7.392850000E-02 1.827250000E+01 5.909100000E+00 1.677000000E+01
7.401695000E-02 1.824760000E+01 5.895400000E+00 1.675000000E+01
7.422570000E-02 1.809630000E+01 5.863100000E+00 1.670000000E+01
7.467150000E-02 1.835950000E+01 6.205900000E+00 1.660000000E+01
7.578600000E-02 1.863500000E+01 6.024700000E+00 1.636000000E+01
7.912411000E-02 1.890320000E+01 5.511800000E+00 1.567000000E+01
8.458368000E-02 1.887500000E+01 4.812800000E+00 1.466000000E+01
9.041995000E-02 1.857970000E+01 4.265800000E+00 1.371000000E+01
9.665893000E-02 1.810810000E+01 3.867600000E+00 1.283000000E+01
9.966600000E-02 1.783250000E+01 3.734800000E+00 1.244000000E+01
1.011915000E-01 1.766030000E+01 3.680900000E+00 1.225000000E+01
1.015983000E-01 1.757910000E+01 3.668000000E+00 1.220000000E+01
1.022085000E-01 1.756880000E+01 3.737600000E+00 1.213000000E+01
1.033284000E-01 1.749930000E+01 3.708700000E+00 1.200000000E+01
1.037340000E-01 1.746830000E+01 3.699300000E+00 1.195000000E+01
1.104581000E-01 1.686870000E+01 3.625000000E+00 1.122000000E+01
1.180797000E-01 1.612440000E+01 3.718300000E+00 1.050000000E+01
1.262272000E-01 1.530980000E+01 4.010600000E+00 9.822000000E+00
1.349368000E-01 1.444970000E+01 4.518800000E+00 9.188000000E+00
1.442475000E-01 1.357640000E+01 5.275800000E+00 8.595000000E+00
1.542005000E-01 1.273880000E+01 6.307000000E+00 8.040000000E+00
1.648404000E-01 1.200020000E+01 7.623300000E+00 7.521000000E+00
1.762144000E-01 1.142230000E+01 9.224800000E+00 7.036000000E+00
1.883732000E-01 1.108540000E+01 1.108900000E+01 6.582000000E+00
2.013709000E-01 1.106660000E+01 1.317000000E+01 6.157000000E+00
2.152655000E-01 1.143120000E+01 1.539200000E+01 5.760000000E+00
2.301188000E-01 1.218560000E+01 1.766500000E+01 5.388000000E+00
2.459970000E-01 1.336490000E+01 1.988300000E+01 5.040000000E+00
2.629708000E-01 1.493250000E+01 2.194100000E+01 4.715000000E+00
2.811158000E-01 1.681860000E+01 2.374200000E+01 4.410000000E+00
3.005128000E-01 1.887220000E+01 2.519400000E+01 4.126000000E+00
3.070340000E-01 1.948150000E+01 2.556700000E+01 4.038000000E+00
3.117335000E-01 1.974670000E+01 2.580200000E+01 3.977000000E+00
3.129867000E-01 1.959190000E+01 2.586000000E+01 3.961000000E+00
3.148665000E-01 2.006700000E+01 2.650900000E+01 3.938000000E+00
3.195660000E-01 2.079510000E+01 2.673300000E+01 3.880000000E+00
3.212482000E-01 2.100570000E+01 2.680700000E+01 3.859000000E+00
3.241840000E-01 2.134310000E+01 2.693000000E+01 3.825000000E+00
3.291460000E-01 2.177580000E+01 2.711600000E+01 3.767000000E+00
3.304692000E-01 2.171790000E+01 2.716100000E+01 3.752000000E+00
3.324540000E-01 2.216650000E+01 2.765500000E+01 3.729000000E+00
3.374160000E-01 2.293590000E+01 2.782400000E+01 3.675000000E+00
3.434143000E-01 2.371570000E+01 2.800100000E+01 3.610000000E+00
3.671099000E-01 2.644970000E+01 2.843300000E+01 3.377000000E+00
3.924405000E-01 2.900980000E+01 2.851700000E+01 3.159000000E+00
4.195189000E-01 3.137910000E+01 2.830500000E+01 2.955000000E+00
4.484657000E-01 3.350860000E+01 2.785400000E+01 2.765000000E+00
4.794098000E-01 3.531280000E+01 2.722000000E+01 2.586000000E+00
5.000000000E-01 3.737740000E+01 2.674800000E+01 2.480000000E+00
5.025000000E-01 3.744260000E+01 2.668900000E+01 2.467000000E+00
5.050125000E-01 3.749380000E+01 2.662900000E+01 2.455000000E+00
5.075375600E-01 3.752580000E+01 2.656900000E+01 2.443000000E+00
5.100752500E-01 3.752950000E+01 2.650800000E+01 2.431000000E+00
5.126256300E-01 3.748610000E+01 2.644700000E+01 2.419000000E+00
5.151887500E-01 3.734740000E+01 2.638500000E+01 2.407000000E+00
5.177647000E-01 3.688340000E+01 2.632200000E+01 2.395000000E+00
5.183356700E-01 3.658450000E+01 2.630800000E+01 2.392000000E+00
5.196643100E-01 3.665060000E+01 2.793500000E+01 2.386000000E+00
5.203535200E-01 3.706060000E+01 2.791900000E+01 2.383000000E+00
5.229552900E-01 3.775560000E+01 2.785900000E+01 2.371000000E+00
5.255700700E-01 3.815180000E+01 2.779700000E+01 2.359000000E+00
5.281979200E-01 3.845680000E+01 2.773600000E+01 2.347000000E+00
5.308389100E-01 3.871660000E+01 2.767400000E+01 2.336000000E+00
5.334931000E-01 3.894890000E+01 2.761100000E+01 2.324000000E+00
5.361605700E-01 3.916250000E+01 2.754800000E+01 2.312000000E+00
5.388413700E-01 3.936250000E+01 2.748500000E+01 2.301000000E+00
5.415355800E-01 3.955200000E+01 2.742100000E+01 2.289000000E+00
5.442432500E-01 3.973300000E+01 2.735700000E+01 2.278000000E+00
5.469644700E-01 3.990710000E+01 2.729200000E+01 2.267000000E+00
5.496992900E-01 4.007510000E+01 2.722700000E+01 2.255000000E+00
5.524477900E-01 4.023800000E+01 2.716200000E+01 2.244000000E+00
5.552100300E-01 4.039620000E+01 2.709600000E+01 2.233000000E+00
5.579860800E-01 4.055020000E+01 2.703000000E+01 2.222000000E+00
5.607760100E-01 4.070040000E+01 2.696400000E+01 2.211000000E+00
5.635798900E-01 4.084710000E+01 2.689700000E+01 2.200000000E+00
5.663977900E-01 4.099030000E+01 2.683000000E+01 2.189000000E+00
5.692297800E-01 4.113040000E+01 2.676300000E+01 2.178000000E+00
5.720759300E-01 4.126730000E+01 2.669600000E+01 2.167000000E+00
5.749363000E-01 4.140110000E+01 2.662800000E+01 2.156000000E+00
5.778109900E-01 4.153190000E+01 2.656000000E+01 2.146000000E+00
5.807000400E-01 4.165950000E+01 2.649200000E+01 2.135000000E+00
5.836035400E-01 4.178370000E+01 2.642300000E+01 2.124000000E+00
5.865215600E-01 4.190440000E+01 2.635400000E+01 2.114000000E+00
5.894541700E-01 4.202120000E+01 2.628500000E+01 2.103000000E+00
5.924014400E-01 4.213330000E+01 2.621600000E+01 2.093000000E+00
5.953634500E-01 4.223980000E+01 2.614600000E+01 2.082000000E+00
5.983402600E-01 4.233870000E+01 2.607600000E+01 2.072000000E+00
6.013319600E-01 4.242630000E+01 2.600600000E+01 2.062000000E+00
6.043386200E-01 4.249300000E+01 2.593600000E+01 2.052000000E+00
6.073603200E-01 4.249880000E+01 2.586500000E+01 2.041000000E+00
6.083288400E-01 4.244770000E+01 2.584300000E+01 2.038000000E+00
6.100711600E-01 4.251650000E+01 2.618100000E+01 2.032000000E+00
6.103971200E-01 4.256750000E+01 2.617300000E+01 2.031000000E+00
6.134491000E-01 4.283950000E+01 2.610400000E+01 2.021000000E+00
6.165163500E-01 4.302350000E+01 2.603500000E+01 2.011000000E+00
6.195989300E-01 4.318340000E+01 2.596500000E+01 2.001000000E+00
6.226969300E-01 4.333100000E+01 2.589600000E+01 1.991000000E+00
6.258104100E-01 4.347110000E+01 2.582600000E+01 1.981000000E+00
6.289394600E-01 4.360570000E+01 2.575600000E+01 1.971000000E+00
6.320841600E-01 4.373610000E+01 2.568500000E+01 1.962000000E+00
6.352445800E-01 4.386300000E+01 2.561500000E+01 1.952000000E+00
6.384208000E-01 4.398690000E+01 2.554500000E+01 1.942000000E+00
6.416129100E-01 4.410810000E+01 2.547400000E+01 1.932000000E+00
6.448209700E-01 4.422700000E+01 2.540300000E+01 1.923000000E+00
6.480450800E-01 4.434360000E+01 2.533300000E+01 1.913000000E+00
6.512853000E-01 4.445810000E+01 2.526200000E+01 1.904000000E+00
6.545417300E-01 4.457060000E+01 2.519000000E+01 1.894000000E+00
6.578144400E-01 4.468110000E+01 2.511900000E+01 1.885000000E+00
6.611035100E-01 4.478970000E+01 2.504800000E+01 1.875000000E+00
6.644090300E-01 4.489640000E+01 2.497700000E+01 1.866000000E+00
6.677310700E-01 4.500120000E+01 2.490500000E+01 1.857000000E+00
6.710697300E-01 4.510400000E+01 2.483300000E+01 1.848000000E+00
6.744250800E-01 4.520480000E+01 2.476200000E+01 1.838000000E+00
6.777972000E-01 4.530360000E+01 2.469000000E+01 1.829000000E+00
6.811861900E-01 4.540020000E+01 2.461800000E+01 1.820000000E+00
6.845921200E-01 4.549440000E+01 2.454600000E+01 1.811000000E+00
6.880150800E-01 4.558600000E+01 2.447400000E+01 1.802000000E+00
6.914551500E-01 4.567470000E+01 2.440200000E+01 1.793000000E+00
6.949124300E-01 4.576020000E+01 2.433000000E+01 1.784000000E+00
6.983869900E-01 4.584160000E+01 2.425700000E+01 1.775000000E+00
7.018789300E-01 4.591830000E+01 2.418500000E+01 1.766000000E+00
7.053883200E-01 4.598850000E+01 2.411300000E+01 1.758000000E+00
7.089152600E-01 4.604970000E+01 2.404000000E+01 1.749000000E+00
7.124598400E-01 4.609680000E+01 2.396800000E+01 1.740000000E+00
7.160221400E-01 4.611710000E+01 2.389500000E+01 1.732000000E+00
7.196022500E-01 4.606020000E+01 2.382300000E+01 1.723000000E+00
7.208520200E-01 4.596880000E+01 2.379700000E+01 1.720000000E+00
7.232002600E-01 4.603990000E+01 2.428600000E+01 1.714000000E+00
7.268162600E-01 4.637370000E+01 2.421400000E+01 1.706000000E+00
7.304503400E-01 4.656600000E+01 2.414200000E+01 1.697000000E+00
7.341026000E-01 4.672300000E+01 2.407000000E+01 1.689000000E+00
7.377731100E-01 4.686320000E+01 2.399800000E+01 1.681000000E+00
7.414619700E-01 4.699330000E+01 2.392600000E+01 1.672000000E+00
7.451692800E-01 4.711660000E+01 2.385500000E+01 1.664000000E+00
7.488951300E-01 4.723480000E+01 2.378300000E+01 1.656000000E+00
7.526396100E-01 4.734920000E+01 2.371100000E+01 1.647000000E+00
7.564028000E-01 4.746030000E+01 2.363900000E+01 1.639000000E+00
7.601848200E-01 4.756870000E+01 2.356700000E+01 1.631000000E+00
7.639857400E-01 4.767490000E+01 2.349500000E+01 1.623000000E+00
7.678056700E-01 4.777890000E+01 2.342300000E+01 1.615000000E+00
7.716447000E-01 4.788120000E+01 2.335100000E+01 1.607000000E+00
7.755029200E-01 4.798180000E+01 2.327900000E+01 1.599000000E+00
7.793804400E-01 4.808090000E+01 2.320700000E+01 1.591000000E+00
7.832773400E-01 4.817860000E+01 2.313500000E+01 1.583000000E+00
7.871937300E-01 4.827500000E+01 2.306300000E+01 1.575000000E+00
7.911296900E-01 4.837020000E+01 2.299100000E+01 1.567000000E+00
7.950853400E-01 4.846420000E+01 2.291900000E+01 1.559000000E+00
7.990607700E-01 4.855710000E+01 2.284700000E+01 1.552000000E+00
8.030560700E-01 4.864900000E+01 2.277500000E+01 1.544000000E+00
8.070713500E-01 4.873990000E+01 2.270300000E+01 1.536000000E+00
8.111067100E-01 4.882980000E+01 2.263100000E+01 1.529000000E+00
8.151622400E-01 4.891870000E+01 2.255900000E+01 1.521000000E+00
8.192380600E-01 4.900680000E+01 2.248700000E+01 1.513000000E+00
8.233342500E-01 4.909390000E+01 2.241500000E+01 1.506000000E+00
8.274509200E-01 4.918020000E+01 2.234300000E+01 1.498000000E+00
8.315881700E-01 4.926570000E+01 2.227100000E+01 1.491000000E+00
8.357461100E-01 4.935040000E+01 2.219900000E+01 1.484000000E+00
8.399248400E-01 4.943420000E+01 2.212800000E+01 1.476000000E+00
8.441244700E-01 4.951730000E+01 2.205600000E+01 1.469000000E+00
8.483450900E-01 4.959970000E+01 2.198400000E+01 1.461000000E+00
8.525868200E-01 4.968130000E+01 2.191200000E+01 1.454000000E+00
8.568497500E-01 4.976220000E+01 2.184000000E+01 1.447000000E+00
8.611340000E-01 4.984250000E+01 2.176900000E+01 1.440000000E+00
8.654396700E-01 4.992210000E+01 2.169700000E+01 1.433000000E+00
8.697668700E-01 5.000110000E+01 2.162500000E+01 1.425000000E+00
8.741157000E-01 5.007940000E+01 2.155400000E+01 1.418000000E+00
8.784862800E-01 5.015720000E+01 2.148200000E+01 1.411000000E+00
8.828787100E-01 5.023420000E+01 2.140900000E+01 1.404000000E+00
8.872931000E-01 5.031050000E+01 2.133700000E+01 1.397000000E+00
8.917295700E-01 5.038620000E+01 2.126500000E+01 1.390000000E+00
8.961882200E-01 5.046120000E+01 2.119200000E+01 1.383000000E+00
9.006691600E-01 5.053560000E+01 2.112000000E+01 1.377000000E+00
9.051725000E-01 5.060940000E+01 2.104800000E+01 1.370000000E+00
9.096983700E-01 5.068260000E+01 2.097600000E+01 1.363000000E+00
9.142468600E-01 5.075530000E+01 2.090400000E+01 1.356000000E+00
9.188180900E-01 5.082750000E+01 2.083200000E+01 1.349000000E+00
9.234121800E-01 5.089920000E+01 2.076000000E+01 1.343000000E+00
9.280292400E-01 5.097050000E+01 2.068800000E+01 1.336000000E+00
9.326693900E-01 5.104150000E+01 2.061600000E+01 1.329000000E+00
9.373327400E-01 5.111220000E+01 2.054400000E+01 1.323000000E+00
9.420194000E-01 5.119450000E+01 2.047200000E+01 1.316000000E+00
9.467295000E-01 5.126500000E+01 2.040100000E+01 1.310000000E+00
9.514631500E-01 5.133570000E+01 2.032900000E+01 1.303000000E+00
9.562204600E-01 5.140650000E+01 2.025800000E+01 1.297000000E+00
9.610015600E-01 5.147800000E+01 2.018600000E+01 1.290000000E+00
9.658065700E-01 5.155030000E+01 2.011500000E+01 1.284000000E+00
9.706356000E-01 5.162400000E+01 2.004400000E+01 1.277000000E+00
9.754887800E-01 5.170000000E+01 1.997300000E+01 1.271000000E+00
9.803662300E-01 5.177970000E+01 1.990100000E+01 1.265000000E+00
9.852680600E-01 5.186530000E+01 1.983000000E+01 1.258000000E+00
9.901944000E-01 5.196150000E+01 1.976000000E+01 1.252000000E+00
9.951453700E-01 5.208850000E+01 1.968900000E+01 1.246000000E+00
1.000121100E+00 5.225110000E+01 1.961700000E+01 1.240000000E+00
1.005121700E+00 5.236620000E+01 1.952300000E+01 1.234000000E+00
1.010147300E+00 5.246530000E+01 1.942900000E+01 1.227000000E+00
1.015198000E+00 5.255320000E+01 1.933500000E+01 1.221000000E+00
1.020274000E+00 5.263280000E+01 1.924200000E+01 1.215000000E+00
1.025375400E+00 5.270620000E+01 1.914900000E+01 1.209000000E+00
1.030502300E+00 5.277440000E+01 1.905600000E+01 1.203000000E+00
1.035654800E+00 5.283850000E+01 1.896300000E+01 1.197000000E+00
1.040833100E+00 5.289890000E+01 1.887100000E+01 1.191000000E+00
1.046037200E+00 5.295620000E+01 1.877900000E+01 1.185000000E+00
1.051267400E+00 5.301090000E+01 1.868700000E+01 1.179000000E+00
1.056523800E+00 5.306310000E+01 1.859600000E+01 1.174000000E+00
1.061806400E+00 5.311320000E+01 1.850500000E+01 1.168000000E+00
1.067115400E+00 5.316140000E+01 1.841400000E+01 1.162000000E+00
1.072451000E+00 5.320770000E+01 1.832400000E+01 1.156000000E+00
1.077813200E+00 5.325240000E+01 1.823400000E+01 1.150000000E+00
1.083202300E+00 5.329550000E+01 1.814500000E+01 1.145000000E+00
1.088618300E+00 5.333710000E+01 1.805600000E+01 1.139000000E+00
1.094061400E+00 5.337730000E+01 1.796800000E+01 1.133000000E+00
1.099531700E+00 5.341620000E+01 1.788000000E+01 1.128000000E+00
1.105029400E+00 5.345380000E+01 1.779200000E+01 1.122000000E+00
1.110554500E+00 5.349020000E+01 1.770500000E+01 1.116000000E+00
1.116107300E+00 5.352540000E+01 1.761900000E+01 1.111000000E+00
1.121687800E+00 5.355950000E+01 1.753200000E+01 1.105000000E+00
1.127296300E+00 5.359250000E+01 1.744700000E+01 1.100000000E+00
1.132932800E+00 5.362450000E+01 1.736100000E+01 1.094000000E+00
1.138597400E+00 5.365540000E+01 1.727600000E+01 1.089000000E+00
1.144290400E+00 5.368520000E+01 1.719200000E+01 1.084000000E+00
1.150011900E+00 5.371410000E+01 1.710800000E+01 1.078000000E+00
1.155761900E+00 5.374210000E+01 1.702400000E+01 1.073000000E+00
1.161540700E+00 5.376910000E+01 1.694100000E+01 1.067000000E+00
1.167348400E+00 5.379520000E+01 1.685800000E+01 1.062000000E+00
1.173185200E+00 5.382050000E+01 1.677600000E+01 1.057000000E+00
1.179051100E+00 5.384480000E+01 1.669400000E+01 1.052000000E+00
1.184946400E+00 5.386830000E+01 1.661300000E+01 1.046000000E+00
1.190871100E+00 5.389100000E+01 1.653200000E+01 1.041000000E+00
1.196825400E+00 5.391290000E+01 1.645100000E+01 1.036000000E+00
1.202809600E+00 5.393410000E+01 1.637100000E+01 1.031000000E+00
1.208823600E+00 5.395440000E+01 1.629200000E+01 1.026000000E+00
1.214867700E+00 5.397410000E+01 1.621300000E+01 1.021000000E+00
1.220942100E+00 5.399300000E+01 1.613400000E+01 1.015000000E+00
1.227046800E+00 5.401110000E+01 1.605500000E+01 1.010000000E+00
1.233182000E+00 5.402850000E+01 1.597600000E+01 1.005000000E+00
1.239347900E+00 5.404520000E+01 1.589800000E+01 1.000000000E+00
1.245544700E+00 5.406110000E+01 1.582100000E+01 9.954000000E-01
1.251772400E+00 5.407630000E+01 1.574400000E+01 9.905000000E-01
1.258031200E+00 5.409070000E+01 1.566000000E+01 9.855000000E-01
1.264321400E+00 5.410370000E+01 1.557400000E+01 9.806000000E-01
1.270643000E+00 5.411530000E+01 1.548900000E+01 9.758000000E-01
1.276996200E+00 5.412560000E+01 1.540500000E+01 9.709000000E-01
1.283381200E+00 5.413460000E+01 1.532100000E+01 9.661000000E-01
1.289798100E+00 5.414240000E+01 1.523800000E+01 9.613000000E-01
1.296247100E+00 5.414900000E+01 1.515500000E+01 9.565000000E-01
1.302728300E+00 5.415430000E+01 1.507300000E+01 9.517000000E-01
1.309242000E+00 5.415850000E+01 1.499200000E+01 9.470000000E-01
