# Data retrieved from physics.nist.gov 03/01/2021
# Element, Rb  (Z = 37) 
# Atomic weight, g mol-1 = 85.46780 
# Nominal density, g cm-3 =  1.5290 
# Relativistic correction estimate f_rel(5CL),  e atom-1 =  -1.5840E-01 
# Nuclear Thomson correction f_NT, e atom-1 =  -8.7870E-03 
#    E [keV]      f1 [e atom-1]      f2 [e atom-1]    Wavelength [nm] 
1.069000000E-02 1.060520000E+01 0.000000000E+00 1.160000000E+02
1.142761000E-02 1.060150000E+01 0.000000000E+00 1.085000000E+02
1.221612000E-02 1.059720000E+01 0.000000000E+00 1.015000000E+02
1.305903000E-02 1.059230000E+01 0.000000000E+00 9.494000000E+01
1.396010000E-02 1.058670000E+01 0.000000000E+00 8.881000000E+01
1.492335000E-02 1.058030000E+01 0.000000000E+00 8.308000000E+01
1.595306000E-02 1.057300000E+01 0.000000000E+00 7.772000000E+01
1.705382000E-02 1.056460000E+01 0.000000000E+00 7.270000000E+01
1.823053000E-02 1.055500000E+01 0.000000000E+00 6.801000000E+01
1.948844000E-02 1.054400000E+01 0.000000000E+00 6.362000000E+01
2.083314000E-02 1.053140000E+01 0.000000000E+00 5.951000000E+01
2.227063000E-02 1.051700000E+01 0.000000000E+00 5.567000000E+01
2.380730000E-02 1.050040000E+01 0.000000000E+00 5.208000000E+01
2.545001000E-02 1.048140000E+01 0.000000000E+00 4.872000000E+01
2.720606000E-02 1.045960000E+01 0.000000000E+00 4.557000000E+01
2.908327000E-02 1.043450000E+01 0.000000000E+00 4.263000000E+01
3.109002000E-02 1.040570000E+01 0.000000000E+00 3.988000000E+01
3.323523000E-02 1.037260000E+01 0.000000000E+00 3.731000000E+01
3.552846000E-02 1.033450000E+01 0.000000000E+00 3.490000000E+01
3.797993000E-02 1.029050000E+01 0.000000000E+00 3.264000000E+01
4.060054000E-02 1.023970000E+01 0.000000000E+00 3.054000000E+01
4.340198000E-02 1.018090000E+01 0.000000000E+00 2.857000000E+01
4.639671000E-02 1.011280000E+01 0.000000000E+00 2.672000000E+01
4.959809000E-02 1.003370000E+01 0.000000000E+00 2.500000000E+01
5.302035000E-02 9.941640000E+00 0.000000000E+00 2.338000000E+01
5.667876000E-02 9.834030000E+00 0.000000000E+00 2.187000000E+01
6.058959000E-02 9.707810000E+00 0.000000000E+00 2.046000000E+01
6.477028000E-02 9.559050000E+00 0.000000000E+00 1.914000000E+01
6.923942000E-02 9.382670000E+00 0.000000000E+00 1.791000000E+01
7.401695000E-02 9.171950000E+00 0.000000000E+00 1.675000000E+01
7.912411000E-02 8.917740000E+00 0.000000000E+00 1.567000000E+01
8.458368000E-02 8.606950000E+00 0.000000000E+00 1.466000000E+01
9.041995000E-02 8.219720000E+00 0.000000000E+00 1.371000000E+01
9.665893000E-02 7.722460000E+00 0.000000000E+00 1.283000000E+01
1.033284000E-01 7.044660000E+00 0.000000000E+00 1.200000000E+01
1.080940000E-01 6.368320000E+00 0.000000000E+00 1.147000000E+01
1.095640000E-01 6.050040000E+00 0.000000000E+00 1.132000000E+01
1.097485000E-01 5.994300000E+00 0.000000000E+00 1.130000000E+01
1.101897000E-01 5.780320000E+00 0.000000000E+00 1.125000000E+01
1.104581000E-01 5.752750000E+00 2.591400000E-01 1.122000000E+01
1.108515000E-01 5.770370000E+00 2.697000000E-01 1.118000000E+01
1.112410000E-01 5.721180000E+00 2.805400000E-01 1.115000000E+01
1.116882000E-01 5.589450000E+00 2.934700000E-01 1.110000000E+01
1.123590000E-01 5.596190000E+00 4.969300000E-01 1.103000000E+01
1.125060000E-01 5.590620000E+00 5.042700000E-01 1.102000000E+01
1.140360000E-01 5.450790000E+00 5.867800000E-01 1.087000000E+01
1.180797000E-01 4.912650000E+00 8.674400000E-01 1.050000000E+01
1.262272000E-01 3.699860000E+00 1.796100000E+00 9.822000000E+00
1.349368000E-01 2.563550000E+00 3.275700000E+00 9.188000000E+00
1.442475000E-01 1.746870000E+00 5.274100000E+00 8.595000000E+00
1.542005000E-01 1.466690000E+00 7.648100000E+00 8.040000000E+00
1.648404000E-01 1.844240000E+00 1.016300000E+01 7.521000000E+00
1.762144000E-01 2.875350000E+00 1.256100000E+01 7.036000000E+00
1.883732000E-01 4.443820000E+00 1.462200000E+01 6.582000000E+00
2.013709000E-01 6.357970000E+00 1.620400000E+01 6.157000000E+00
2.152655000E-01 8.378210000E+00 1.725200000E+01 5.760000000E+00
2.301188000E-01 1.013300000E+01 1.778000000E+01 5.388000000E+00
2.337300000E-01 1.037410000E+01 1.783400000E+01 5.305000000E+00
2.373075000E-01 1.024070000E+01 1.786300000E+01 5.225000000E+00
2.382615000E-01 9.693420000E+00 1.786700000E+01 5.204000000E+00
2.396925000E-01 1.049160000E+01 1.915200000E+01 5.173000000E+00
2.424520000E-01 1.124750000E+01 1.917600000E+01 5.114000000E+00
2.432700000E-01 1.139470000E+01 1.918100000E+01 5.097000000E+00
2.459970000E-01 1.172640000E+01 1.919000000E+01 5.040000000E+00
2.461630000E-01 1.173350000E+01 1.919000000E+01 5.037000000E+00
2.471526000E-01 1.162090000E+01 1.919100000E+01 5.017000000E+00
2.486370000E-01 1.214070000E+01 1.974200000E+01 4.987000000E+00
2.523480000E-01 1.294820000E+01 1.974400000E+01 4.913000000E+00
2.629708000E-01 1.458100000E+01 1.967300000E+01 4.715000000E+00
2.811158000E-01 1.675940000E+01 1.934300000E+01 4.410000000E+00
3.005128000E-01 1.856480000E+01 1.879500000E+01 4.126000000E+00
3.156580000E-01 1.953750000E+01 1.828700000E+01 3.928000000E+00
3.204895000E-01 1.954330000E+01 1.811700000E+01 3.869000000E+00
3.212482000E-01 1.943150000E+01 1.809000000E+01 3.859000000E+00
3.217779000E-01 1.921330000E+01 1.807100000E+01 3.853000000E+00
3.237105000E-01 1.978190000E+01 1.883500000E+01 3.830000000E+00
3.285420000E-01 2.049460000E+01 1.866300000E+01 3.774000000E+00
3.434143000E-01 2.178720000E+01 1.812400000E+01 3.610000000E+00
3.671099000E-01 2.329240000E+01 1.726400000E+01 3.377000000E+00
3.924405000E-01 2.454430000E+01 1.636900000E+01 3.159000000E+00
4.195189000E-01 2.560940000E+01 1.546000000E+01 2.955000000E+00
4.484657000E-01 2.652130000E+01 1.455300000E+01 2.765000000E+00
4.794098000E-01 2.730130000E+01 1.365400000E+01 2.586000000E+00
5.124891000E-01 2.796170000E+01 1.277100000E+01 2.419000000E+00
5.478508000E-01 2.851460000E+01 1.191200000E+01 2.263000000E+00
5.856525000E-01 2.897160000E+01 1.108400000E+01 2.117000000E+00
6.260625000E-01 2.934300000E+01 1.029100000E+01 1.980000000E+00
6.692609000E-01 2.963760000E+01 9.536400000E+00 1.853000000E+00
7.154399000E-01 2.986350000E+01 8.821200000E+00 1.733000000E+00
7.648052000E-01 3.003280000E+01 8.146700000E+00 1.621000000E+00
8.175768000E-01 3.014120000E+01 7.512800000E+00 1.516000000E+00
8.739896000E-01 3.019850000E+01 6.919100000E+00 1.419000000E+00
9.342948000E-01 3.020950000E+01 6.364900000E+00 1.327000000E+00
9.987612000E-01 3.018130000E+01 5.848700000E+00 1.241000000E+00
1.067676000E+00 3.009240000E+01 5.259100000E+00 1.161000000E+00
1.141345000E+00 2.988580000E+01 4.733700000E+00 1.086000000E+00
1.220098000E+00 2.957990000E+01 4.267000000E+00 1.016000000E+00
1.304285000E+00 2.916560000E+01 3.850900000E+00 9.506000000E-01
1.394281000E+00 2.860480000E+01 3.476300000E+00 8.892000000E-01
1.490486000E+00 2.781590000E+01 3.142500000E+00 8.318000000E-01
1.593329000E+00 2.660030000E+01 2.844700000E+00 7.781000000E-01
1.703269000E+00 2.427050000E+01 2.578600000E+00 7.279000000E-01
1.768312000E+00 2.099980000E+01 2.441600000E+00 7.011000000E-01
1.795378000E+00 1.676890000E+01 2.388500000E+00 6.906000000E-01
1.802596000E+00 1.201460000E+01 2.374700000E+00 6.878000000E-01
1.813422000E+00 1.650240000E+01 1.145100000E+01 6.837000000E-01
1.820795000E+00 1.812080000E+01 1.134800000E+01 6.809000000E-01
1.826622000E+00 1.886800000E+01 1.126800000E+01 6.788000000E-01
1.840488000E+00 1.975230000E+01 1.108100000E+01 6.736000000E-01
1.854580000E+00 1.951050000E+01 1.089500000E+01 6.685000000E-01
1.862036000E+00 1.766130000E+01 1.079800000E+01 6.659000000E-01
1.873219000E+00 2.053120000E+01 1.514200000E+01 6.619000000E-01
1.901178000E+00 2.361610000E+01 1.466300000E+01 6.521000000E-01
1.946430000E+00 2.584350000E+01 1.400700000E+01 6.370000000E-01
2.023798000E+00 2.752870000E+01 1.309000000E+01 6.126000000E-01
2.054774000E+00 2.735060000E+01 1.276900000E+01 6.034000000E-01
2.063035000E+00 2.653100000E+01 1.268700000E+01 6.010000000E-01
2.075425000E+00 2.772210000E+01 1.448000000E+01 5.974000000E-01
2.080733000E+00 2.807200000E+01 1.442400000E+01 5.959000000E-01
2.106402000E+00 2.909670000E+01 1.416100000E+01 5.886000000E-01
2.224304000E+00 3.140760000E+01 1.309200000E+01 5.574000000E-01
2.377781000E+00 3.312150000E+01 1.192900000E+01 5.214000000E-01
2.541848000E+00 3.431070000E+01 1.081600000E+01 4.878000000E-01
2.717235000E+00 3.516440000E+01 9.791100000E+00 4.563000000E-01
2.904724000E+00 3.579950000E+01 8.853100000E+00 4.268000000E-01
3.105150000E+00 3.629640000E+01 7.974600000E+00 3.993000000E-01
3.319406000E+00 3.661500000E+01 7.160100000E+00 3.735000000E-01
3.548445000E+00 3.684090000E+01 6.434200000E+00 3.494000000E-01
3.793288000E+00 3.714670000E+01 5.757900000E+00 3.269000000E-01
4.055024000E+00 3.723070000E+01 5.139200000E+00 3.058000000E-01
4.334821000E+00 3.730830000E+01 4.579200000E+00 2.860000000E-01
4.633924000E+00 3.730120000E+01 4.077600000E+00 2.676000000E-01
4.953664000E+00 3.726470000E+01 3.630800000E+00 2.503000000E-01
5.295467000E+00 3.720790000E+01 3.235800000E+00 2.341000000E-01
5.660855000E+00 3.713770000E+01 2.886400000E+00 2.190000000E-01
6.051453000E+00 3.705860000E+01 2.577000000E+00 2.049000000E-01
6.469004000E+00 3.697370000E+01 2.301700000E+00 1.917000000E-01
6.915365000E+00 3.688480000E+01 2.057600000E+00 1.793000000E-01
7.392525000E+00 3.679380000E+01 1.841100000E+00 1.677000000E-01
7.902609000E+00 3.670230000E+01 1.648000000E+00 1.569000000E-01
8.447890000E+00 3.660830000E+01 1.470300000E+00 1.468000000E-01
9.030794000E+00 3.651470000E+01 1.308200000E+00 1.373000000E-01
9.653919000E+00 3.640090000E+01 1.149100000E+00 1.284000000E-01
1.032004000E+01 3.626850000E+01 1.010300000E+00 1.201000000E-01
1.103212000E+01 3.611540000E+01 8.891800000E-01 1.124000000E-01
1.179334000E+01 3.593190000E+01 7.833300000E-01 1.051000000E-01
1.260708000E+01 3.569540000E+01 6.907500000E-01 9.834000000E-02
1.347697000E+01 3.534890000E+01 6.097000000E-01 9.200000000E-02
1.440688000E+01 3.467530000E+01 5.386700000E-01 8.606000000E-02
1.489571000E+01 3.379010000E+01 5.065000000E-01 8.323000000E-02
1.512370000E+01 3.242800000E+01 4.925400000E-01 8.198000000E-02
1.518450000E+01 3.078450000E+01 4.889200000E-01 8.165000000E-02
1.527570000E+01 3.246380000E+01 3.724500000E+00 8.116000000E-02
1.540095000E+01 3.352450000E+01 3.664300000E+00 8.050000000E-02
1.550369000E+01 3.398200000E+01 3.615900000E+00 7.997000000E-02
1.646362000E+01 3.555430000E+01 3.233300000E+00 7.531000000E-02
1.759961000E+01 3.621840000E+01 2.897800000E+00 7.045000000E-02
1.881398000E+01 3.660500000E+01 2.609700000E+00 6.590000000E-02
2.011215000E+01 3.687020000E+01 2.348400000E+00 6.165000000E-02
2.149988000E+01 3.705200000E+01 2.100700000E+00 5.767000000E-02
2.298338000E+01 3.717620000E+01 1.876500000E+00 5.395000000E-02
2.456923000E+01 3.726130000E+01 1.674900000E+00 5.046000000E-02
2.626450000E+01 3.731980000E+01 1.494700000E+00 4.721000000E-02
2.807676000E+01 3.735920000E+01 1.329600000E+00 4.416000000E-02
3.001405000E+01 3.738060000E+01 1.181500000E+00 4.131000000E-02
3.208502000E+01 3.742480000E+01 1.044600000E+00 3.864000000E-02
3.429889000E+01 3.742150000E+01 9.225400000E-01 3.615000000E-02
3.666551000E+01 3.741100000E+01 8.148200000E-01 3.381000000E-02
3.919543000E+01 3.739580000E+01 7.197000000E-01 3.163000000E-02
4.189992000E+01 3.737760000E+01 6.356500000E-01 2.959000000E-02
4.479101000E+01 3.735760000E+01 5.613600000E-01 2.768000000E-02
4.788159000E+01 3.733670000E+01 4.955200000E-01 2.589000000E-02
5.118542000E+01 3.731530000E+01 4.374300000E-01 2.422000000E-02
5.471721000E+01 3.729420000E+01 3.861800000E-01 2.266000000E-02
5.849270000E+01 3.727360000E+01 3.409500000E-01 2.120000000E-02
6.252870000E+01 3.725380000E+01 3.010400000E-01 1.983000000E-02
6.684318000E+01 3.723520000E+01 2.655200000E-01 1.855000000E-02
7.145536000E+01 3.721710000E+01 2.332900000E-01 1.735000000E-02
7.638578000E+01 3.719970000E+01 2.049700000E-01 1.623000000E-02
8.165640000E+01 3.718410000E+01 1.799100000E-01 1.518000000E-02
8.729069000E+01 3.716860000E+01 1.575500000E-01 1.420000000E-02
9.331374000E+01 3.715390000E+01 1.379800000E-01 1.329000000E-02
9.975239000E+01 3.714010000E+01 1.208400000E-01 1.243000000E-02
1.066353000E+02 3.712730000E+01 1.058300000E-01 1.163000000E-02
1.139931000E+02 3.711550000E+01 9.269500000E-02 1.088000000E-02
1.218587000E+02 3.710460000E+01 8.119100000E-02 1.017000000E-02
1.302669000E+02 3.709470000E+01 7.111800000E-02 9.518000000E-03
1.392553000E+02 3.708550000E+01 6.229600000E-02 8.903000000E-03
1.488640000E+02 3.707720000E+01 5.457100000E-02 8.329000000E-03
1.591356000E+02 3.706960000E+01 4.780600000E-02 7.791000000E-03
1.701159000E+02 3.706270000E+01 4.188100000E-02 7.288000000E-03
1.818539000E+02 3.705650000E+01 3.669100000E-02 6.818000000E-03
1.944018000E+02 3.705080000E+01 3.214600000E-02 6.378000000E-03
2.078156000E+02 3.704560000E+01 2.816400000E-02 5.966000000E-03
2.221548000E+02 3.704100000E+01 2.467700000E-02 5.581000000E-03
2.374835000E+02 3.703680000E+01 2.162200000E-02 5.221000000E-03
2.538699000E+02 3.703300000E+01 1.894600000E-02 4.884000000E-03
2.713869000E+02 3.702960000E+01 1.660100000E-02 4.569000000E-03
2.901126000E+02 3.702650000E+01 1.454700000E-02 4.274000000E-03
3.101304000E+02 3.702370000E+01 1.274800000E-02 3.998000000E-03
3.315294000E+02 3.702120000E+01 1.117100000E-02 3.740000000E-03
3.544049000E+02 3.701900000E+01 9.789900000E-03 3.498000000E-03
3.788588000E+02 3.701700000E+01 8.579600000E-03 3.273000000E-03
4.050001000E+02 3.701520000E+01 7.519200000E-03 3.061000000E-03
4.329451000E+02 3.701350000E+01 6.590000000E-03 2.864000000E-03
