# Data retrieved from physics.nist.gov 03/01/2021
# Element, Se  (Z = 34) 
# Atomic weight, g mol-1 = 78.96000 
# Nominal density, g cm-3 =  4.7800 
# Relativistic correction estimate f_rel(5CL),  e atom-1 =  -1.2900E-01 
# Nuclear Thomson correction f_NT, e atom-1 =  -8.0314E-03 
#    E [keV]      f1 [e atom-1]      f2 [e atom-1]    Wavelength [nm] 
1.069000000E-02 7.121700000E+00 0.000000000E+00 1.160000000E+02
1.142761000E-02 7.112010000E+00 0.000000000E+00 1.085000000E+02
1.221612000E-02 7.100910000E+00 0.000000000E+00 1.015000000E+02
1.305903000E-02 7.088170000E+00 0.000000000E+00 9.494000000E+01
1.396010000E-02 7.073550000E+00 0.000000000E+00 8.881000000E+01
1.492335000E-02 7.056770000E+00 0.000000000E+00 8.308000000E+01
1.595306000E-02 7.037500000E+00 0.000000000E+00 7.772000000E+01
1.705382000E-02 7.015340000E+00 0.000000000E+00 7.270000000E+01
1.823053000E-02 6.989830000E+00 0.000000000E+00 6.801000000E+01
1.948844000E-02 6.960440000E+00 0.000000000E+00 6.362000000E+01
2.083314000E-02 6.926550000E+00 0.000000000E+00 5.951000000E+01
2.227063000E-02 6.887380000E+00 0.000000000E+00 5.567000000E+01
2.380730000E-02 6.842050000E+00 0.000000000E+00 5.208000000E+01
2.545001000E-02 6.789480000E+00 0.000000000E+00 4.872000000E+01
2.720606000E-02 6.728350000E+00 0.000000000E+00 4.557000000E+01
2.908327000E-02 6.657050000E+00 0.000000000E+00 4.263000000E+01
3.109002000E-02 6.573590000E+00 0.000000000E+00 3.988000000E+01
3.323523000E-02 6.475420000E+00 0.000000000E+00 3.731000000E+01
3.552846000E-02 6.359300000E+00 0.000000000E+00 3.490000000E+01
3.797993000E-02 6.220900000E+00 0.000000000E+00 3.264000000E+01
4.060054000E-02 6.054300000E+00 0.000000000E+00 3.054000000E+01
4.340198000E-02 5.850930000E+00 0.000000000E+00 2.857000000E+01
4.639671000E-02 5.597430000E+00 0.000000000E+00 2.672000000E+01
4.959809000E-02 5.269960000E+00 0.000000000E+00 2.500000000E+01
5.302035000E-02 4.812370000E+00 0.000000000E+00 2.338000000E+01
5.556600000E-02 4.284450000E+00 0.000000000E+00 2.231000000E+01
5.641650000E-02 3.912110000E+00 0.000000000E+00 2.198000000E+01
5.667876000E-02 3.426110000E+00 0.000000000E+00 2.187000000E+01
5.698350000E-02 3.792960000E+00 5.425500000E-01 2.176000000E+01
5.783400000E-02 3.871460000E+00 6.022600000E-01 2.144000000E+01
6.058959000E-02 3.625860000E+00 8.360700000E-01 2.046000000E+01
6.477028000E-02 3.116530000E+00 1.325300000E+00 1.914000000E+01
6.923942000E-02 2.604740000E+00 1.991400000E+00 1.791000000E+01
7.401695000E-02 2.150980000E+00 2.835600000E+00 1.675000000E+01
7.912411000E-02 1.810090000E+00 3.847700000E+00 1.567000000E+01
8.458368000E-02 1.630400000E+00 5.000600000E+00 1.466000000E+01
9.041995000E-02 1.649140000E+00 6.252800000E+00 1.371000000E+01
9.665893000E-02 1.888640000E+00 7.553300000E+00 1.283000000E+01
1.033284000E-01 2.354480000E+00 8.847200000E+00 1.200000000E+01
1.104581000E-01 3.035770000E+00 1.008100000E+01 1.122000000E+01
1.180797000E-01 3.906860000E+00 1.120800000E+01 1.050000000E+01
1.262272000E-01 4.929690000E+00 1.219000000E+01 9.822000000E+00
1.349368000E-01 6.055160000E+00 1.300000000E+01 9.188000000E+00
1.442475000E-01 7.219060000E+00 1.362300000E+01 8.595000000E+00
1.542005000E-01 8.306750000E+00 1.405200000E+01 8.040000000E+00
1.586620000E-01 8.647230000E+00 1.417700000E+01 7.814000000E+00
1.610905000E-01 8.631840000E+00 1.422900000E+01 7.697000000E+00
1.617381000E-01 8.383520000E+00 1.424200000E+01 7.666000000E+00
1.627095000E-01 8.779410000E+00 1.487100000E+01 7.620000000E+00
1.648404000E-01 9.216560000E+00 1.492800000E+01 7.521000000E+00
1.651380000E-01 9.259600000E+00 1.493500000E+01 7.508000000E+00
1.673590000E-01 9.490610000E+00 1.498600000E+01 7.408000000E+00
1.680318000E-01 9.449020000E+00 1.500000000E+01 7.379000000E+00
1.690410000E-01 9.717150000E+00 1.528700000E+01 7.335000000E+00
1.715640000E-01 1.016720000E+01 1.534500000E+01 7.227000000E+00
1.762144000E-01 1.080490000E+01 1.543300000E+01 7.036000000E+00
1.883732000E-01 1.223450000E+01 1.556400000E+01 6.582000000E+00
2.013709000E-01 1.356350000E+01 1.555900000E+01 6.157000000E+00
2.152655000E-01 1.477640000E+01 1.542700000E+01 5.760000000E+00
2.268700000E-01 1.552510000E+01 1.524300000E+01 5.465000000E+00
2.301188000E-01 1.554030000E+01 1.518100000E+01 5.388000000E+00
2.303425000E-01 1.552180000E+01 1.517700000E+01 5.383000000E+00
2.312685000E-01 1.526430000E+01 1.515800000E+01 5.361000000E+00
2.326575000E-01 1.570240000E+01 1.577700000E+01 5.329000000E+00
2.361300000E-01 1.625540000E+01 1.571000000E+01 5.251000000E+00
2.459970000E-01 1.721950000E+01 1.549700000E+01 5.040000000E+00
2.629708000E-01 1.851150000E+01 1.507300000E+01 4.715000000E+00
2.811158000E-01 1.965450000E+01 1.456600000E+01 4.410000000E+00
3.005128000E-01 2.067850000E+01 1.399300000E+01 4.126000000E+00
3.212482000E-01 2.159210000E+01 1.337200000E+01 3.859000000E+00
3.434143000E-01 2.240070000E+01 1.271900000E+01 3.610000000E+00
3.671099000E-01 2.310970000E+01 1.204700000E+01 3.377000000E+00
3.924405000E-01 2.372490000E+01 1.136800000E+01 3.159000000E+00
4.195189000E-01 2.425250000E+01 1.069100000E+01 2.955000000E+00
4.484657000E-01 2.469880000E+01 1.002500000E+01 2.765000000E+00
4.794098000E-01 2.507010000E+01 9.376000000E+00 2.586000000E+00
5.124891000E-01 2.537700000E+01 8.748400000E+00 2.419000000E+00
5.478508000E-01 2.561530000E+01 8.145700000E+00 2.263000000E+00
5.856525000E-01 2.579450000E+01 7.570400000E+00 2.117000000E+00
6.260625000E-01 2.591820000E+01 7.023800000E+00 1.980000000E+00
6.692609000E-01 2.598890000E+01 6.506400000E+00 1.853000000E+00
7.154399000E-01 2.600770000E+01 6.017000000E+00 1.733000000E+00
7.648052000E-01 2.597090000E+01 5.556000000E+00 1.621000000E+00
8.175768000E-01 2.587570000E+01 5.124100000E+00 1.516000000E+00
8.739896000E-01 2.571570000E+01 4.721600000E+00 1.419000000E+00
9.000000000E-01 2.604900000E+01 4.553900000E+00 1.378000000E+00
9.045000000E-01 2.603440000E+01 4.525900000E+00 1.371000000E+00
9.090225000E-01 2.601950000E+01 4.498100000E+00 1.364000000E+00
9.135676100E-01 2.600420000E+01 4.470500000E+00 1.357000000E+00
9.181354500E-01 2.598850000E+01 4.443000000E+00 1.350000000E+00
9.227261300E-01 2.597230000E+01 4.415700000E+00 1.344000000E+00
9.273397600E-01 2.595580000E+01 4.388500000E+00 1.337000000E+00
9.319764600E-01 2.593880000E+01 4.361500000E+00 1.330000000E+00
9.366363400E-01 2.592140000E+01 4.334700000E+00 1.324000000E+00
9.413195200E-01 2.590360000E+01 4.308000000E+00 1.317000000E+00
9.460261200E-01 2.588530000E+01 4.281500000E+00 1.311000000E+00
9.507562500E-01 2.586660000E+01 4.255100000E+00 1.304000000E+00
9.555100300E-01 2.584750000E+01 4.228900000E+00 1.298000000E+00
9.602875800E-01 2.582790000E+01 4.202900000E+00 1.291000000E+00
9.650890200E-01 2.580780000E+01 4.177000000E+00 1.285000000E+00
9.699144600E-01 2.578720000E+01 4.151300000E+00 1.278000000E+00
9.747640400E-01 2.576620000E+01 4.125700000E+00 1.272000000E+00
9.796378600E-01 2.574470000E+01 4.100300000E+00 1.266000000E+00
9.845360500E-01 2.572270000E+01 4.075000000E+00 1.259000000E+00
9.894587300E-01 2.570020000E+01 4.049900000E+00 1.253000000E+00
9.944060200E-01 2.567720000E+01 4.025000000E+00 1.247000000E+00
9.993780500E-01 2.565370000E+01 4.000200000E+00 1.241000000E+00
1.004374900E+00 2.562960000E+01 3.969900000E+00 1.234000000E+00
1.009396800E+00 2.560450000E+01 3.939200000E+00 1.228000000E+00
1.014443800E+00 2.557850000E+01 3.908600000E+00 1.222000000E+00
1.019516000E+00 2.555150000E+01 3.878400000E+00 1.216000000E+00
1.024613600E+00 2.552360000E+01 3.848400000E+00 1.210000000E+00
1.029736700E+00 2.549460000E+01 3.818600000E+00 1.204000000E+00
1.034885300E+00 2.546470000E+01 3.789100000E+00 1.198000000E+00
1.040059800E+00 2.543380000E+01 3.759900000E+00 1.192000000E+00
1.045260100E+00 2.540180000E+01 3.730900000E+00 1.186000000E+00
1.050486400E+00 2.536890000E+01 3.702100000E+00 1.180000000E+00
1.055738800E+00 2.533490000E+01 3.673600000E+00 1.174000000E+00
1.061017500E+00 2.529980000E+01 3.645300000E+00 1.169000000E+00
1.066322600E+00 2.526370000E+01 3.616600000E+00 1.163000000E+00
1.071654200E+00 2.522640000E+01 3.586800000E+00 1.157000000E+00
1.077012500E+00 2.518790000E+01 3.557200000E+00 1.151000000E+00
1.082397500E+00 2.514820000E+01 3.527800000E+00 1.145000000E+00
1.087809500E+00 2.510720000E+01 3.498800000E+00 1.140000000E+00
1.093248600E+00 2.506490000E+01 3.470000000E+00 1.134000000E+00
1.098714800E+00 2.502130000E+01 3.441500000E+00 1.128000000E+00
1.104208400E+00 2.497640000E+01 3.413300000E+00 1.123000000E+00
1.109729400E+00 2.493000000E+01 3.385300000E+00 1.117000000E+00
1.115278100E+00 2.488210000E+01 3.357600000E+00 1.112000000E+00
1.120854500E+00 2.483280000E+01 3.330200000E+00 1.106000000E+00
1.126458700E+00 2.478200000E+01 3.303000000E+00 1.101000000E+00
1.132091000E+00 2.472950000E+01 3.276000000E+00 1.095000000E+00
1.137751500E+00 2.467540000E+01 3.249400000E+00 1.090000000E+00
1.143440200E+00 2.461970000E+01 3.222900000E+00 1.084000000E+00
1.149157400E+00 2.456210000E+01 3.196700000E+00 1.079000000E+00
1.154903200E+00 2.450270000E+01 3.170800000E+00 1.074000000E+00
1.160677700E+00 2.444140000E+01 3.145100000E+00 1.068000000E+00
1.166481100E+00 2.437810000E+01 3.119600000E+00 1.063000000E+00
1.172313500E+00 2.431270000E+01 3.094400000E+00 1.058000000E+00
1.178175100E+00 2.424510000E+01 3.069400000E+00 1.052000000E+00
1.184066000E+00 2.417520000E+01 3.044700000E+00 1.047000000E+00
1.189986300E+00 2.410290000E+01 3.020100000E+00 1.042000000E+00
1.195936200E+00 2.402810000E+01 2.995800000E+00 1.037000000E+00
1.201915900E+00 2.395060000E+01 2.971700000E+00 1.032000000E+00
1.207925500E+00 2.387040000E+01 2.947900000E+00 1.026000000E+00
1.213965100E+00 2.378720000E+01 2.924200000E+00 1.021000000E+00
1.220035000E+00 2.370080000E+01 2.900800000E+00 1.016000000E+00
1.226135100E+00 2.361110000E+01 2.877600000E+00 1.011000000E+00
1.232265800E+00 2.351790000E+01 2.854600000E+00 1.006000000E+00
1.238427100E+00 2.342090000E+01 2.831800000E+00 1.001000000E+00
1.244619300E+00 2.331990000E+01 2.809300000E+00 9.962000000E-01
1.250842400E+00 2.321460000E+01 2.786900000E+00 9.912000000E-01
1.257096600E+00 2.310470000E+01 2.764700000E+00 9.863000000E-01
1.263382100E+00 2.298980000E+01 2.742800000E+00 9.814000000E-01
1.269699000E+00 2.286960000E+01 2.721000000E+00 9.765000000E-01
1.276047500E+00 2.274370000E+01 2.699500000E+00 9.716000000E-01
1.282427700E+00 2.261140000E+01 2.678100000E+00 9.668000000E-01
1.288839900E+00 2.247230000E+01 2.656900000E+00 9.620000000E-01
1.295284000E+00 2.232580000E+01 2.635900000E+00 9.572000000E-01
1.301760500E+00 2.217110000E+01 2.615200000E+00 9.524000000E-01
1.308269300E+00 2.200730000E+01 2.594600000E+00 9.477000000E-01
1.314810600E+00 2.183350000E+01 2.574100000E+00 9.430000000E-01
1.321384700E+00 2.164860000E+01 2.553900000E+00 9.383000000E-01
1.327991600E+00 2.145120000E+01 2.533900000E+00 9.336000000E-01
1.334631600E+00 2.123970000E+01 2.514000000E+00 9.290000000E-01
1.341304700E+00 2.101220000E+01 2.494300000E+00 9.244000000E-01
1.348011200E+00 2.076620000E+01 2.474800000E+00 9.198000000E-01
1.354751300E+00 2.049890000E+01 2.455500000E+00 9.152000000E-01
1.361525000E+00 2.020660000E+01 2.436300000E+00 9.106000000E-01
1.368332700E+00 1.988450000E+01 2.417300000E+00 9.061000000E-01
1.375174300E+00 1.952630000E+01 2.398500000E+00 9.016000000E-01
1.382050200E+00 1.912360000E+01 2.379900000E+00 8.971000000E-01
1.388960500E+00 1.866440000E+01 2.361400000E+00 8.926000000E-01
1.395905300E+00 1.813110000E+01 2.343100000E+00 8.882000000E-01
1.402884800E+00 1.749590000E+01 2.324900000E+00 8.838000000E-01
1.409899200E+00 1.671150000E+01 2.306900000E+00 8.794000000E-01
1.416948700E+00 1.568540000E+01 2.289100000E+00 8.750000000E-01
1.424033500E+00 1.419180000E+01 2.271400000E+00 8.707000000E-01
1.431153600E+00 1.133020000E+01 2.253900000E+00 8.663000000E-01
1.435656800E+00 9.595820000E-01 2.243000000E+00 8.636000000E-01
1.435943100E+00 7.989140000E-01 1.154200000E+01 8.634000000E-01
1.438309400E+00 9.239440000E+00 1.151200000E+01 8.620000000E-01
1.445500900E+00 1.304710000E+01 1.142000000E+01 8.577000000E-01
1.452728400E+00 1.439620000E+01 1.132900000E+01 8.535000000E-01
1.459992100E+00 1.499630000E+01 1.123800000E+01 8.492000000E-01
1.467292000E+00 1.498260000E+01 1.114900000E+01 8.450000000E-01
1.474628500E+00 1.314960000E+01 1.106000000E+01 8.408000000E-01
1.476049400E+00 9.844360000E+00 1.104300000E+01 8.400000000E-01
1.476350600E+00 9.792840000E+00 1.563400000E+01 8.398000000E-01
1.482001600E+00 1.558670000E+01 1.553900000E+01 8.366000000E-01
1.489411700E+00 1.729590000E+01 1.541600000E+01 8.324000000E-01
1.496858700E+00 1.838780000E+01 1.529300000E+01 8.283000000E-01
1.504343000E+00 1.922600000E+01 1.517200000E+01 8.242000000E-01
1.511864700E+00 1.991660000E+01 1.505200000E+01 8.201000000E-01
1.519424000E+00 2.050700000E+01 1.493200000E+01 8.160000000E-01
1.527021200E+00 2.102330000E+01 1.481400000E+01 8.119000000E-01
1.534656300E+00 2.148170000E+01 1.469600000E+01 8.079000000E-01
1.542329500E+00 2.189290000E+01 1.458000000E+01 8.039000000E-01
1.550041200E+00 2.226410000E+01 1.446400000E+01 7.999000000E-01
1.557791400E+00 2.260080000E+01 1.435000000E+01 7.959000000E-01
1.565580400E+00 2.290690000E+01 1.423600000E+01 7.919000000E-01
1.573408300E+00 2.318500000E+01 1.412300000E+01 7.880000000E-01
1.581275300E+00 2.343680000E+01 1.401100000E+01 7.841000000E-01
1.589181700E+00 2.366340000E+01 1.390000000E+01 7.802000000E-01
1.597127600E+00 2.386450000E+01 1.379000000E+01 7.763000000E-01
1.605113200E+00 2.403890000E+01 1.368100000E+01 7.724000000E-01
1.613138800E+00 2.418340000E+01 1.357300000E+01 7.686000000E-01
1.621204500E+00 2.429150000E+01 1.346500000E+01 7.648000000E-01
1.629310500E+00 2.435010000E+01 1.335900000E+01 7.610000000E-01
1.637457100E+00 2.432770000E+01 1.325300000E+01 7.572000000E-01
1.645644300E+00 2.412260000E+01 1.314800000E+01 7.534000000E-01
1.652459500E+00 2.323180000E+01 1.306200000E+01 7.503000000E-01
1.653872600E+00 2.085300000E+01 1.304400000E+01 7.497000000E-01
1.655340600E+00 2.327480000E+01 1.494000000E+01 7.490000000E-01
1.662141900E+00 2.450310000E+01 1.484800000E+01 7.459000000E-01
1.670452600E+00 2.511900000E+01 1.473700000E+01 7.422000000E-01
1.678804900E+00 2.555030000E+01 1.462700000E+01 7.385000000E-01
1.687198900E+00 2.590200000E+01 1.451800000E+01 7.349000000E-01
1.695634900E+00 2.620730000E+01 1.441000000E+01 7.312000000E-01
1.704113100E+00 2.648110000E+01 1.430200000E+01 7.276000000E-01
1.712633700E+00 2.673170000E+01 1.419600000E+01 7.239000000E-01
1.721196800E+00 2.696390000E+01 1.409000000E+01 7.203000000E-01
1.729802800E+00 2.718090000E+01 1.398500000E+01 7.168000000E-01
1.738451800E+00 2.738480000E+01 1.388200000E+01 7.132000000E-01
1.747144100E+00 2.757810000E+01 1.378000000E+01 7.096000000E-01
1.755879800E+00 2.776240000E+01 1.367900000E+01 7.061000000E-01
1.764659200E+00 2.793840000E+01 1.357900000E+01 7.026000000E-01
1.773482500E+00 2.810700000E+01 1.348100000E+01 6.991000000E-01
1.782349900E+00 2.826880000E+01 1.338300000E+01 6.956000000E-01
1.791261700E+00 2.842450000E+01 1.328500000E+01 6.922000000E-01
1.800218000E+00 2.857440000E+01 1.318900000E+01 6.887000000E-01
1.809219100E+00 2.871910000E+01 1.309300000E+01 6.853000000E-01
1.818265200E+00 2.885900000E+01 1.299900000E+01 6.819000000E-01
1.827356500E+00 2.899430000E+01 1.290500000E+01 6.785000000E-01
1.836493300E+00 2.912530000E+01 1.281200000E+01 6.751000000E-01
1.845675700E+00 2.925250000E+01 1.271900000E+01 6.718000000E-01
1.854904100E+00 2.937600000E+01 1.262800000E+01 6.684000000E-01
1.864178600E+00 2.949610000E+01 1.253700000E+01 6.651000000E-01
1.873499500E+00 2.961280000E+01 1.244600000E+01 6.618000000E-01
1.882867000E+00 2.972600000E+01 1.235500000E+01 6.585000000E-01
1.892281400E+00 2.983590000E+01 1.226400000E+01 6.552000000E-01
1.901742800E+00 2.994270000E+01 1.217500000E+01 6.520000000E-01
1.911251500E+00 3.004660000E+01 1.208600000E+01 6.487000000E-01
1.920807700E+00 3.014770000E+01 1.199700000E+01 6.455000000E-01
1.930411800E+00 3.024600000E+01 1.190900000E+01 6.423000000E-01
1.940063800E+00 3.034160000E+01 1.182100000E+01 6.391000000E-01
1.949764200E+00 3.043450000E+01 1.173300000E+01 6.359000000E-01
1.959513000E+00 3.052490000E+01 1.164700000E+01 6.327000000E-01
1.969310500E+00 3.061300000E+01 1.156100000E+01 6.296000000E-01
1.979157100E+00 3.069880000E+01 1.147600000E+01 6.264000000E-01
1.989052900E+00 3.078240000E+01 1.139100000E+01 6.233000000E-01
1.998998100E+00 3.086380000E+01 1.130700000E+01 6.202000000E-01
2.008993100E+00 3.094330000E+01 1.122400000E+01 6.171000000E-01
2.019038100E+00 3.102080000E+01 1.114100000E+01 6.141000000E-01
2.029133300E+00 3.109640000E+01 1.105900000E+01 6.110000000E-01
2.039279000E+00 3.117020000E+01 1.097800000E+01 6.080000000E-01
2.049475400E+00 3.124230000E+01 1.089700000E+01 6.050000000E-01
2.059722700E+00 3.131270000E+01 1.081700000E+01 6.019000000E-01
2.070021300E+00 3.138150000E+01 1.073700000E+01 5.990000000E-01
2.080371400E+00 3.144870000E+01 1.065800000E+01 5.960000000E-01
2.090773300E+00 3.151440000E+01 1.058000000E+01 5.930000000E-01
2.101227200E+00 3.157870000E+01 1.050200000E+01 5.901000000E-01
2.111733300E+00 3.164160000E+01 1.042500000E+01 5.871000000E-01
2.122292000E+00 3.170310000E+01 1.034800000E+01 5.842000000E-01
2.132903400E+00 3.176340000E+01 1.027200000E+01 5.813000000E-01
2.143568000E+00 3.182250000E+01 1.019600000E+01 5.784000000E-01
2.154285800E+00 3.188050000E+01 1.012100000E+01 5.755000000E-01
2.165057200E+00 3.193700000E+01 1.004500000E+01 5.727000000E-01
2.175882500E+00 3.199200000E+01 9.969700000E+00 5.698000000E-01
2.186761900E+00 3.204580000E+01 9.895000000E+00 5.670000000E-01
2.197695700E+00 3.209820000E+01 9.820900000E+00 5.642000000E-01
2.208684200E+00 3.214940000E+01 9.747300000E+00 5.613000000E-01
2.219727600E+00 3.219940000E+01 9.674200000E+00 5.586000000E-01
2.230826300E+00 3.224820000E+01 9.601600000E+00 5.558000000E-01
2.241980400E+00 3.229590000E+01 9.529600000E+00 5.530000000E-01
2.253190300E+00 3.234250000E+01 9.458100000E+00 5.503000000E-01
2.264456200E+00 3.238800000E+01 9.387100000E+00 5.475000000E-01
2.275778500E+00 3.243250000E+01 9.316600000E+00 5.448000000E-01
2.287157400E+00 3.247600000E+01 9.246700000E+00 5.421000000E-01
2.298593200E+00 3.251850000E+01 9.177200000E+00 5.394000000E-01
2.310086200E+00 3.256010000E+01 9.108300000E+00 5.367000000E-01
2.321636600E+00 3.260070000E+01 9.039900000E+00 5.340000000E-01
2.333244800E+00 3.264040000E+01 8.971900000E+00 5.314000000E-01
2.344911000E+00 3.267920000E+01 8.904500000E+00 5.287000000E-01
2.356635600E+00 3.271720000E+01 8.837600000E+00 5.261000000E-01
2.368418700E+00 3.275430000E+01 8.771100000E+00 5.235000000E-01
2.380260800E+00 3.279060000E+01 8.705200000E+00 5.209000000E-01
2.392162100E+00 3.282610000E+01 8.639700000E+00 5.183000000E-01
2.404123000E+00 3.286080000E+01 8.574700000E+00 5.157000000E-01
2.416143600E+00 3.289470000E+01 8.510200000E+00 5.131000000E-01
2.428224300E+00 3.292790000E+01 8.446200000E+00 5.106000000E-01
2.440365400E+00 3.296040000E+01 8.382600000E+00 5.081000000E-01
2.452567200E+00 3.299220000E+01 8.319500000E+00 5.055000000E-01
2.464830100E+00 3.302320000E+01 8.256900000E+00 5.030000000E-01
2.477154200E+00 3.305360000E+01 8.194800000E+00 5.005000000E-01
2.489540000E+00 3.308340000E+01 8.133100000E+00 4.980000000E-01
2.501987700E+00 3.311250000E+01 8.071900000E+00 4.955000000E-01
2.514497600E+00 3.314090000E+01 8.011200000E+00 4.931000000E-01
2.527070100E+00 3.316880000E+01 7.950900000E+00 4.906000000E-01
2.539705500E+00 3.319600000E+01 7.891100000E+00 4.882000000E-01
2.552404000E+00 3.322270000E+01 7.831700000E+00 4.858000000E-01
2.565166000E+00 3.324880000E+01 7.772800000E+00 4.833000000E-01
