# Data retrieved from physics.nist.gov 03/01/2021
# Element, Tc  (Z = 43) 
# Atomic weight, g mol-1 = 98.00000 
# Nominal density, g cm-3 =  1.1480E+01 
# Relativistic correction estimate f_rel(5CL),  e atom-1 =  -2.2800E-01 
# Nuclear Thomson correction f_NT, e atom-1 =  -1.0350E-02 
#    E [keV]      f1 [e atom-1]      f2 [e atom-1]    Wavelength [nm] 
6.594833000E-03 4.825580000E+00 0.000000000E+00 1.880000000E+02
6.695774000E-03 4.594530000E+00 0.000000000E+00 1.852000000E+02
6.722692000E-03 4.416010000E+00 0.000000000E+00 1.844000000E+02
6.763068000E-03 4.509170000E+00 2.828700000E-01 1.833000000E+02
6.864010000E-03 4.446360000E+00 2.741000000E-01 1.806000000E+02
6.871351000E-03 4.432830000E+00 2.734800000E-01 1.804000000E+02
6.976524000E-03 3.992410000E+00 2.647900000E-01 1.777000000E+02
7.004571000E-03 3.437420000E+00 2.625400000E-01 1.770000000E+02
7.046640000E-03 4.023910000E+00 1.356200000E+00 1.759000000E+02
7.151814000E-03 4.528650000E+00 1.316000000E+00 1.734000000E+02
1.069000000E-02 3.698220000E+00 1.922400000E+00 1.160000000E+02
1.142761000E-02 3.350220000E+00 2.451700000E+00 1.085000000E+02
1.221612000E-02 3.046210000E+00 3.143300000E+00 1.015000000E+02
1.305903000E-02 2.839670000E+00 4.004700000E+00 9.494000000E+01
1.396010000E-02 2.794070000E+00 5.023900000E+00 8.881000000E+01
1.492335000E-02 2.974220000E+00 6.162400000E+00 8.308000000E+01
1.595306000E-02 3.433370000E+00 7.353300000E+00 7.772000000E+01
1.705382000E-02 4.199130000E+00 8.505600000E+00 7.270000000E+01
1.823053000E-02 5.262430000E+00 9.516800000E+00 6.801000000E+01
1.948844000E-02 6.573620000E+00 1.029000000E+01 6.362000000E+01
2.083314000E-02 8.051400000E+00 1.075300000E+01 5.951000000E+01
2.227063000E-02 9.591390000E+00 1.086900000E+01 5.567000000E+01
2.380730000E-02 1.106790000E+01 1.064300000E+01 5.208000000E+01
2.545001000E-02 1.239180000E+01 1.011800000E+01 4.872000000E+01
2.720606000E-02 1.348890000E+01 9.360100000E+00 4.557000000E+01
2.908327000E-02 1.431110000E+01 8.449100000E+00 4.263000000E+01
3.109002000E-02 1.482820000E+01 7.462700000E+00 3.988000000E+01
3.323523000E-02 1.501210000E+01 6.473800000E+00 3.731000000E+01
3.552846000E-02 1.476840000E+01 5.536400000E+00 3.490000000E+01
3.797993000E-02 1.334310000E+01 4.684100000E+00 3.264000000E+01
3.812200000E-02 1.312460000E+01 4.639300000E+00 3.252000000E+01
3.870550000E-02 1.117020000E+01 4.460600000E+00 3.203000000E+01
3.886110000E-02 8.719250000E+00 4.414200000E+00 3.190000000E+01
3.909450000E-02 1.143300000E+01 9.222400000E+00 3.171000000E+01
3.967800000E-02 1.382260000E+01 8.769200000E+00 3.125000000E+01
4.060054000E-02 1.518680000E+01 8.110200000E+00 3.054000000E+01
4.340198000E-02 1.659570000E+01 6.470100000E+00 2.857000000E+01
4.639671000E-02 1.693050000E+01 5.223700000E+00 2.672000000E+01
4.959809000E-02 1.691900000E+01 4.284900000E+00 2.500000000E+01
5.302035000E-02 1.676240000E+01 3.568200000E+00 2.338000000E+01
5.667876000E-02 1.654060000E+01 3.015900000E+00 2.187000000E+01
6.058959000E-02 1.628760000E+01 2.587100000E+00 2.046000000E+01
6.477028000E-02 1.600820000E+01 2.252600000E+00 1.914000000E+01
6.703200000E-02 1.583140000E+01 2.110000000E+00 1.850000000E+01
6.805800000E-02 1.569890000E+01 2.052300000E+00 1.822000000E+01
6.833160000E-02 1.559400000E+01 2.037600000E+00 1.814000000E+01
6.874200000E-02 1.566140000E+01 2.192900000E+00 1.804000000E+01
6.923942000E-02 1.568550000E+01 2.169600000E+00 1.791000000E+01
6.976800000E-02 1.568580000E+01 2.145700000E+00 1.777000000E+01
7.401695000E-02 1.556550000E+01 1.983800000E+00 1.675000000E+01
7.912411000E-02 1.539320000E+01 1.843600000E+00 1.567000000E+01
8.458368000E-02 1.522140000E+01 1.738100000E+00 1.466000000E+01
9.041995000E-02 1.505390000E+01 1.659600000E+00 1.371000000E+01
9.665893000E-02 1.488940000E+01 1.602300000E+00 1.283000000E+01
1.033284000E-01 1.472510000E+01 1.561600000E+00 1.200000000E+01
1.104581000E-01 1.455680000E+01 1.533800000E+00 1.122000000E+01
1.180797000E-01 1.436590000E+01 1.516000000E+00 1.050000000E+01
1.262272000E-01 1.417340000E+01 1.505800000E+00 9.822000000E+00
1.349368000E-01 1.395860000E+01 1.507600000E+00 9.188000000E+00
1.442475000E-01 1.371690000E+01 1.520200000E+00 8.595000000E+00
1.542005000E-01 1.343730000E+01 1.535200000E+00 8.040000000E+00
1.648404000E-01 1.310400000E+01 1.551600000E+00 7.521000000E+00
1.762144000E-01 1.269510000E+01 1.568000000E+00 7.036000000E+00
1.883732000E-01 1.217790000E+01 1.583500000E+00 6.582000000E+00
2.013709000E-01 1.149950000E+01 1.597400000E+00 6.157000000E+00
2.152655000E-01 1.056530000E+01 1.609000000E+00 5.760000000E+00
2.301188000E-01 9.149530000E+00 1.617900000E+00 5.388000000E+00
2.459970000E-01 6.384180000E+00 1.623500000E+00 5.040000000E+00
2.478420000E-01 5.804940000E+00 1.623900000E+00 5.003000000E+00
2.512720000E-01 4.081070000E+00 1.624500000E+00 4.934000000E+00
2.516355000E-01 3.761230000E+00 1.624600000E+00 4.927000000E+00
2.526471000E-01 2.030920000E+00 1.624700000E+00 4.907000000E+00
2.541645000E-01 2.869960000E+00 4.482600000E+00 4.878000000E+00
2.551180000E-01 2.879460000E+00 4.545100000E+00 4.860000000E+00
2.561436000E-01 2.074270000E+00 4.613500000E+00 4.840000000E+00
2.576820000E-01 3.140860000E+00 6.674700000E+00 4.812000000E+00
2.579580000E-01 3.269010000E+00 6.705700000E+00 4.806000000E+00
2.615280000E-01 4.008500000E+00 7.122100000E+00 4.741000000E+00
2.629708000E-01 4.131810000E+00 7.298100000E+00 4.715000000E+00
2.811158000E-01 4.407390000E+00 9.931200000E+00 4.410000000E+00
3.005128000E-01 5.077320000E+00 1.308300000E+01 4.126000000E+00
3.212482000E-01 6.597980000E+00 1.604300000E+01 3.859000000E+00
3.434143000E-01 8.796090000E+00 1.846500000E+01 3.610000000E+00
3.671099000E-01 1.134860000E+01 2.015100000E+01 3.377000000E+00
3.924405000E-01 1.382400000E+01 2.105600000E+01 3.159000000E+00
4.165000000E-01 1.516730000E+01 2.125800000E+01 2.977000000E+00
4.195189000E-01 1.507330000E+01 2.124800000E+01 2.955000000E+00
4.228750000E-01 1.457200000E+01 2.123000000E+01 2.932000000E+00
4.245750000E-01 1.337070000E+01 2.121700000E+01 2.920000000E+00
4.271250000E-01 1.490860000E+01 2.381400000E+01 2.903000000E+00
4.335000000E-01 1.651090000E+01 2.375700000E+01 2.860000000E+00
4.360020000E-01 1.686950000E+01 2.372700000E+01 2.844000000E+00
4.426755000E-01 1.736840000E+01 2.363300000E+01 2.801000000E+00
4.444551000E-01 1.702430000E+01 2.360400000E+01 2.790000000E+00
4.471245000E-01 1.794000000E+01 2.469300000E+01 2.773000000E+00
4.484657000E-01 1.827340000E+01 2.467000000E+01 2.765000000E+00
4.537980000E-01 1.922090000E+01 2.457400000E+01 2.732000000E+00
4.794098000E-01 2.218720000E+01 2.397800000E+01 2.586000000E+00
5.124891000E-01 2.482220000E+01 2.298300000E+01 2.419000000E+00
5.366480000E-01 2.609790000E+01 2.217500000E+01 2.310000000E+00
5.448620000E-01 2.615590000E+01 2.189400000E+01 2.276000000E+00
5.470524000E-01 2.577690000E+01 2.181900000E+01 2.266000000E+00
5.478508000E-01 2.557750000E+01 2.277800000E+01 2.263000000E+00
5.503380000E-01 2.646920000E+01 2.269300000E+01 2.253000000E+00
5.585520000E-01 2.735180000E+01 2.241000000E+01 2.220000000E+00
5.856525000E-01 2.904790000E+01 2.148400000E+01 2.117000000E+00
6.260625000E-01 3.082960000E+01 2.015700000E+01 1.980000000E+00
6.692609000E-01 3.224550000E+01 1.884200000E+01 1.853000000E+00
7.154399000E-01 3.340750000E+01 1.757200000E+01 1.733000000E+00
7.648052000E-01 3.438220000E+01 1.631900000E+01 1.621000000E+00
8.175768000E-01 3.516710000E+01 1.511300000E+01 1.516000000E+00
8.739896000E-01 3.579770000E+01 1.397900000E+01 1.419000000E+00
9.342948000E-01 3.631960000E+01 1.292100000E+01 1.327000000E+00
9.987612000E-01 3.677720000E+01 1.193500000E+01 1.241000000E+00
1.067676000E+00 3.713570000E+01 1.083400000E+01 1.161000000E+00
1.141345000E+00 3.730280000E+01 9.812700000E+00 1.086000000E+00
1.220098000E+00 3.736080000E+01 8.901100000E+00 1.016000000E+00
1.304285000E+00 3.734700000E+01 8.086700000E+00 9.506000000E-01
1.394281000E+00 3.726930000E+01 7.357800000E+00 8.892000000E-01
1.490486000E+00 3.713970000E+01 6.705400000E+00 8.318000000E-01
1.593329000E+00 3.696360000E+01 6.121000000E+00 7.781000000E-01
1.703269000E+00 3.674400000E+01 5.595900000E+00 7.279000000E-01
1.820795000E+00 3.645600000E+01 5.086500000E+00 6.809000000E-01
1.946430000E+00 3.606490000E+01 4.619000000E+00 6.370000000E-01
2.080733000E+00 3.553730000E+01 4.200000000E+00 5.959000000E-01
2.224304000E+00 3.479710000E+01 3.822500000E+00 5.574000000E-01
2.377781000E+00 3.364830000E+01 3.479100000E+00 5.214000000E-01
2.541848000E+00 3.139040000E+01 3.170100000E+00 4.878000000E-01
2.623362000E+00 2.878810000E+01 3.034800000E+00 4.726000000E-01
2.663515000E+00 2.503230000E+01 2.972000000E+00 4.655000000E-01
2.674223000E+00 2.078080000E+01 2.955600000E+00 4.636000000E-01
2.690284000E+00 2.484400000E+01 1.111200000E+01 4.609000000E-01
2.717235000E+00 2.751140000E+01 1.090800000E+01 4.563000000E-01
2.730438000E+00 2.806980000E+01 1.081100000E+01 4.541000000E-01
2.737336000E+00 2.826660000E+01 1.076000000E+01 4.529000000E-01
2.779234000E+00 2.800380000E+01 1.046200000E+01 4.461000000E-01
2.790407000E+00 2.622590000E+01 1.038400000E+01 4.443000000E-01
2.807166000E+00 2.867580000E+01 1.431800000E+01 4.417000000E-01
2.849064000E+00 3.125700000E+01 1.396600000E+01 4.352000000E-01
2.904724000E+00 3.284730000E+01 1.353200000E+01 4.268000000E-01
2.981650000E+00 3.396500000E+01 1.300100000E+01 4.158000000E-01
3.027288000E+00 3.387930000E+01 1.269400000E+01 4.096000000E-01
3.039458000E+00 3.309220000E+01 1.261100000E+01 4.079000000E-01
3.057713000E+00 3.428830000E+01 1.436800000E+01 4.055000000E-01
3.105150000E+00 3.572770000E+01 1.403200000E+01 3.993000000E-01
3.319406000E+00 3.846240000E+01 1.265100000E+01 3.735000000E-01
3.548445000E+00 3.999670000E+01 1.138600000E+01 3.494000000E-01
3.793288000E+00 4.101050000E+01 1.023500000E+01 3.269000000E-01
4.055024000E+00 4.171560000E+01 9.199500000E+00 3.058000000E-01
4.334821000E+00 4.220950000E+01 8.265400000E+00 2.860000000E-01
4.633924000E+00 4.255760000E+01 7.429900000E+00 2.676000000E-01
4.953664000E+00 4.280300000E+01 6.680800000E+00 2.503000000E-01
5.295467000E+00 4.297570000E+01 6.009900000E+00 2.341000000E-01
5.660855000E+00 4.322300000E+01 5.383800000E+00 2.190000000E-01
6.051453000E+00 4.327680000E+01 4.813000000E+00 2.049000000E-01
6.469004000E+00 4.332560000E+01 4.297400000E+00 1.917000000E-01
6.915365000E+00 4.330430000E+01 3.839700000E+00 1.793000000E-01
7.392525000E+00 4.326190000E+01 3.434000000E+00 1.677000000E-01
7.902609000E+00 4.320610000E+01 3.074000000E+00 1.569000000E-01
8.447890000E+00 4.314230000E+01 2.751900000E+00 1.468000000E-01
9.030794000E+00 4.307820000E+01 2.458800000E+00 1.373000000E-01
9.653919000E+00 4.300030000E+01 2.180900000E+00 1.284000000E-01
1.032004000E+01 4.290780000E+01 1.936300000E+00 1.201000000E-01
1.103212000E+01 4.280800000E+01 1.719800000E+00 1.124000000E-01
1.179334000E+01 4.270340000E+01 1.527600000E+00 1.051000000E-01
1.260708000E+01 4.259150000E+01 1.353300000E+00 9.834000000E-02
1.347697000E+01 4.247040000E+01 1.197600000E+00 9.200000000E-02
1.440688000E+01 4.233480000E+01 1.057300000E+00 8.606000000E-02
1.540095000E+01 4.217930000E+01 9.343200000E-01 8.050000000E-02
1.646362000E+01 4.199330000E+01 8.264000000E-01 7.531000000E-02
1.759961000E+01 4.175250000E+01 7.316200000E-01 7.045000000E-02
1.881398000E+01 4.139350000E+01 6.482300000E-01 6.590000000E-02
2.011215000E+01 4.065360000E+01 5.748600000E-01 6.165000000E-02
2.062312000E+01 3.994110000E+01 5.496000000E-01 6.012000000E-02
2.093878000E+01 3.863030000E+01 5.348800000E-01 5.921000000E-02
2.102296000E+01 3.705230000E+01 5.310600000E-01 5.898000000E-02
2.114922000E+01 3.865790000E+01 3.635400000E+00 5.862000000E-02
2.146488000E+01 4.011000000E+01 3.539000000E+00 5.776000000E-02
2.149988000E+01 4.019530000E+01 3.528600000E+00 5.767000000E-02
2.298338000E+01 4.173840000E+01 3.146100000E+00 5.395000000E-02
2.456923000E+01 4.234260000E+01 2.826300000E+00 5.046000000E-02
2.626450000E+01 4.270560000E+01 2.540200000E+00 4.721000000E-02
2.807676000E+01 4.295200000E+01 2.269400000E+00 4.416000000E-02
3.001405000E+01 4.311180000E+01 2.021000000E+00 4.131000000E-02
3.208502000E+01 4.321800000E+01 1.799900000E+00 3.864000000E-02
3.429889000E+01 4.328850000E+01 1.603200000E+00 3.615000000E-02
3.666551000E+01 4.333410000E+01 1.428200000E+00 3.381000000E-02
3.919543000E+01 4.336240000E+01 1.272500000E+00 3.163000000E-02
4.189992000E+01 4.337890000E+01 1.133800000E+00 2.959000000E-02
4.479101000E+01 4.341890000E+01 1.003100000E+00 2.768000000E-02
4.788159000E+01 4.341350000E+01 8.870500000E-01 2.589000000E-02
5.118542000E+01 4.340180000E+01 7.844900000E-01 2.422000000E-02
5.471721000E+01 4.338590000E+01 6.938400000E-01 2.266000000E-02
5.849270000E+01 4.336750000E+01 6.136900000E-01 2.120000000E-02
6.252870000E+01 4.334770000E+01 5.427800000E-01 1.983000000E-02
6.684318000E+01 4.332710000E+01 4.799300000E-01 1.855000000E-02
7.145536000E+01 4.330640000E+01 4.241900000E-01 1.735000000E-02
7.638578000E+01 4.328600000E+01 3.749500000E-01 1.623000000E-02
8.165640000E+01 4.326690000E+01 3.310000000E-01 1.518000000E-02
8.729069000E+01 4.324790000E+01 2.913100000E-01 1.420000000E-02
9.331374000E+01 4.322910000E+01 2.562400000E-01 1.329000000E-02
9.975239000E+01 4.321090000E+01 2.251500000E-01 1.243000000E-02
1.066353000E+02 4.319350000E+01 1.978500000E-01 1.163000000E-02
1.139931000E+02 4.317710000E+01 1.738700000E-01 1.088000000E-02
1.218587000E+02 4.316170000E+01 1.528000000E-01 1.017000000E-02
1.302669000E+02 4.314740000E+01 1.342900000E-01 9.518000000E-03
1.392553000E+02 4.313420000E+01 1.180300000E-01 8.903000000E-03
1.488640000E+02 4.312190000E+01 1.037400000E-01 8.329000000E-03
1.591356000E+02 4.311060000E+01 9.118300000E-02 7.791000000E-03
1.701159000E+02 4.310020000E+01 8.015100000E-02 7.288000000E-03
1.818539000E+02 4.309070000E+01 7.045600000E-02 6.818000000E-03
1.944018000E+02 4.308200000E+01 6.193600000E-02 6.378000000E-03
2.078156000E+02 4.307410000E+01 5.444900000E-02 5.966000000E-03
2.221548000E+02 4.306690000E+01 4.786900000E-02 5.581000000E-03
2.374835000E+02 4.306030000E+01 4.208500000E-02 5.221000000E-03
2.538699000E+02 4.305430000E+01 3.700100000E-02 4.884000000E-03
2.713869000E+02 4.304890000E+01 3.253300000E-02 4.569000000E-03
2.901126000E+02 4.304400000E+01 2.860500000E-02 4.274000000E-03
3.101304000E+02 4.303960000E+01 2.515200000E-02 3.998000000E-03
3.315294000E+02 4.303560000E+01 2.211700000E-02 3.740000000E-03
3.544049000E+02 4.303190000E+01 1.944800000E-02 3.498000000E-03
3.788588000E+02 4.302870000E+01 1.710200000E-02 3.273000000E-03
4.050001000E+02 4.302570000E+01 1.504000000E-02 3.061000000E-03
4.329451000E+02 4.302300000E+01 1.322600000E-02 2.864000000E-03
