# Data retrieved from physics.nist.gov 03/01/2021
# Element, Xe  (Z = 54) 
# Atomic weight, g mol-1 = 131.2900 
# Nominal density, g cm-3 =  5.4580E-03 
# Relativistic correction estimate f_rel(5CL),  e atom-1 =  -3.9600E-01 
# Nuclear Thomson correction f_NT, e atom-1 =  -1.2184E-02 
#    E [keV]      f1 [e atom-1]      f2 [e atom-1]    Wavelength [nm] 
1.069000000E-02 1.748170000E+01 0.000000000E+00 1.160000000E+02
1.142761000E-02 1.747290000E+01 0.000000000E+00 1.085000000E+02
1.221612000E-02 1.746270000E+01 0.000000000E+00 1.015000000E+02
1.305903000E-02 1.745100000E+01 0.000000000E+00 9.494000000E+01
1.396010000E-02 1.743760000E+01 0.000000000E+00 8.881000000E+01
1.492335000E-02 1.742220000E+01 0.000000000E+00 8.308000000E+01
1.595306000E-02 1.740440000E+01 0.000000000E+00 7.772000000E+01
1.705382000E-02 1.738390000E+01 0.000000000E+00 7.270000000E+01
1.823053000E-02 1.736030000E+01 0.000000000E+00 6.801000000E+01
1.948844000E-02 1.733300000E+01 0.000000000E+00 6.362000000E+01
2.083314000E-02 1.730140000E+01 0.000000000E+00 5.951000000E+01
2.227063000E-02 1.726470000E+01 0.000000000E+00 5.567000000E+01
2.380730000E-02 1.722210000E+01 0.000000000E+00 5.208000000E+01
2.545001000E-02 1.717240000E+01 0.000000000E+00 4.872000000E+01
2.720606000E-02 1.711430000E+01 0.000000000E+00 4.557000000E+01
2.908327000E-02 1.704600000E+01 0.000000000E+00 4.263000000E+01
3.109002000E-02 1.696530000E+01 0.000000000E+00 3.988000000E+01
3.323523000E-02 1.686960000E+01 0.000000000E+00 3.731000000E+01
3.552846000E-02 1.675510000E+01 0.000000000E+00 3.490000000E+01
3.797993000E-02 1.661690000E+01 0.000000000E+00 3.264000000E+01
4.060054000E-02 1.644830000E+01 0.000000000E+00 3.054000000E+01
4.340198000E-02 1.623920000E+01 0.000000000E+00 2.857000000E+01
4.639671000E-02 1.597490000E+01 0.000000000E+00 2.672000000E+01
4.959809000E-02 1.563100000E+01 0.000000000E+00 2.500000000E+01
5.302035000E-02 1.516350000E+01 0.000000000E+00 2.338000000E+01
5.667876000E-02 1.447870000E+01 0.000000000E+00 2.187000000E+01
6.058959000E-02 1.328890000E+01 0.000000000E+00 2.046000000E+01
6.272000000E-02 1.199940000E+01 0.000000000E+00 1.977000000E+01
6.368000000E-02 1.051810000E+01 0.000000000E+00 1.947000000E+01
6.393600000E-02 9.041680000E+00 0.000000000E+00 1.939000000E+01
6.432000000E-02 1.019890000E+01 2.737300000E+00 1.928000000E+01
6.477028000E-02 1.076810000E+01 2.868300000E+00 1.914000000E+01
6.528000000E-02 1.102950000E+01 3.023000000E+00 1.899000000E+01
6.923942000E-02 1.134510000E+01 4.485500000E+00 1.791000000E+01
7.401695000E-02 1.193530000E+01 6.680600000E+00 1.675000000E+01
7.912411000E-02 1.343520000E+01 8.536300000E+00 1.567000000E+01
8.458368000E-02 1.545670000E+01 9.640400000E+00 1.466000000E+01
9.041995000E-02 1.754820000E+01 9.921700000E+00 1.371000000E+01
9.665893000E-02 1.936720000E+01 9.545700000E+00 1.283000000E+01
1.033284000E-01 2.074870000E+01 8.767300000E+00 1.200000000E+01
1.104581000E-01 2.167280000E+01 7.818700000E+00 1.122000000E+01
1.180797000E-01 2.219720000E+01 6.862700000E+00 1.050000000E+01
1.262272000E-01 2.239820000E+01 5.991600000E+00 9.822000000E+00
1.349368000E-01 2.232040000E+01 5.245100000E+00 9.188000000E+00
1.437660000E-01 2.182720000E+01 4.658700000E+00 8.624000000E+00
1.442475000E-01 2.176290000E+01 4.631000000E+00 8.595000000E+00
1.459665000E-01 2.134160000E+01 4.535300000E+00 8.494000000E+00
1.465533000E-01 2.079680000E+01 4.503800000E+00 8.460000000E+00
1.474335000E-01 2.132240000E+01 5.508200000E+00 8.410000000E+00
1.496340000E-01 2.175670000E+01 5.403400000E+00 8.286000000E+00
1.542005000E-01 2.200640000E+01 5.208200000E+00 8.040000000E+00
1.648404000E-01 2.212900000E+01 4.852600000E+00 7.521000000E+00
1.762144000E-01 2.208520000E+01 4.595800000E+00 7.036000000E+00
1.883732000E-01 2.196450000E+01 4.422600000E+00 6.582000000E+00
2.013709000E-01 2.177020000E+01 4.317900000E+00 6.157000000E+00
2.039380000E-01 2.168980000E+01 4.304700000E+00 6.080000000E+00
2.070595000E-01 2.148620000E+01 4.291300000E+00 5.988000000E+00
2.078919000E-01 2.126940000E+01 4.288300000E+00 5.964000000E+00
2.091405000E-01 2.146910000E+01 4.695700000E+00 5.928000000E+00
2.122620000E-01 2.162780000E+01 4.692300000E+00 5.841000000E+00
2.152655000E-01 2.167910000E+01 4.691300000E+00 5.760000000E+00
2.301188000E-01 2.174260000E+01 4.712900000E+00 5.388000000E+00
2.459970000E-01 2.174540000E+01 4.768500000E+00 5.040000000E+00
2.629708000E-01 2.173590000E+01 4.847500000E+00 4.715000000E+00
2.811158000E-01 2.172110000E+01 4.941100000E+00 4.410000000E+00
3.005128000E-01 2.169870000E+01 5.041800000E+00 4.126000000E+00
3.212482000E-01 2.166170000E+01 5.142700000E+00 3.859000000E+00
3.434143000E-01 2.159920000E+01 5.237500000E+00 3.610000000E+00
3.671099000E-01 2.149510000E+01 5.320400000E+00 3.377000000E+00
3.924405000E-01 2.132730000E+01 5.386200000E+00 3.159000000E+00
4.195189000E-01 2.106440000E+01 5.430800000E+00 2.955000000E+00
4.484657000E-01 2.065820000E+01 5.450700000E+00 2.765000000E+00
4.794098000E-01 2.004480000E+01 5.443600000E+00 2.586000000E+00
5.124891000E-01 1.910670000E+01 5.408400000E+00 2.419000000E+00
5.478508000E-01 1.763220000E+01 5.345300000E+00 2.263000000E+00
5.856525000E-01 1.515230000E+01 5.255300000E+00 2.117000000E+00
6.260625000E-01 1.022920000E+01 5.139900000E+00 1.980000000E+00
6.588540000E-01 -2.980030000E-01 5.035900000E+00 1.882000000E+00
6.692609000E-01 -1.243390000E+01 5.001600000E+00 1.853000000E+00
6.716920000E-01 -2.456810000E+01 4.993500000E+00 1.846000000E+00
6.756615000E-01 -1.320730000E+01 2.755900000E+01 1.835000000E+00
6.819730000E-01 -9.820410000E+00 2.711900000E+01 1.818000000E+00
6.847146000E-01 -1.539580000E+01 2.693200000E+01 1.811000000E+00
6.857460000E-01 -1.794550000E+01 4.188500000E+01 1.808000000E+00
6.888270000E-01 -5.138040000E+00 4.154300000E+01 1.800000000E+00
6.991080000E-01 5.784040000E+00 4.043500000E+01 1.773000000E+00
7.154399000E-01 1.376420000E+01 3.876800000E+01 1.733000000E+00
7.648052000E-01 2.459760000E+01 3.440000000E+01 1.621000000E+00
8.175768000E-01 2.970700000E+01 3.097100000E+01 1.516000000E+00
8.739896000E-01 3.251390000E+01 2.817000000E+01 1.419000000E+00
9.182600000E-01 3.299380000E+01 2.633400000E+01 1.350000000E+00
9.323150000E-01 3.185350000E+01 2.579800000E+01 1.330000000E+00
9.342948000E-01 3.127650000E+01 2.572500000E+01 1.327000000E+00
9.360630000E-01 3.009860000E+01 2.565900000E+01 1.325000000E+00
9.416850000E-01 3.213160000E+01 2.910000000E+01 1.317000000E+00
9.557400000E-01 3.409770000E+01 2.859500000E+01 1.297000000E+00
9.790200000E-01 3.538230000E+01 2.779400000E+01 1.266000000E+00
9.940050000E-01 3.541770000E+01 2.730000000E+01 1.247000000E+00
9.987612000E-01 3.392440000E+01 2.714600000E+01 1.241000000E+00
1.003995000E+00 3.591900000E+01 2.875700000E+01 1.235000000E+00
1.018980000E+00 3.736750000E+01 2.824300000E+01 1.217000000E+00
1.067676000E+00 3.971780000E+01 2.667200000E+01 1.161000000E+00
1.121708000E+00 4.114670000E+01 2.512300000E+01 1.105000000E+00
1.138877000E+00 4.115450000E+01 2.466900000E+01 1.089000000E+00
1.141345000E+00 4.102010000E+01 2.460000000E+01 1.086000000E+00
1.143455000E+00 4.070010000E+01 2.454200000E+01 1.084000000E+00
1.150323000E+00 4.147070000E+01 2.549400000E+01 1.078000000E+00
1.167492000E+00 4.242320000E+01 2.501100000E+01 1.062000000E+00
1.220098000E+00 4.398350000E+01 2.358700000E+01 1.016000000E+00
1.304285000E+00 4.555660000E+01 2.157600000E+01 9.506000000E-01
1.394281000E+00 4.668860000E+01 1.975600000E+01 8.892000000E-01
1.490486000E+00 4.755130000E+01 1.810700000E+01 8.318000000E-01
1.593329000E+00 4.823560000E+01 1.659500000E+01 7.781000000E-01
1.703269000E+00 4.876500000E+01 1.516700000E+01 7.279000000E-01
1.820795000E+00 4.913790000E+01 1.382900000E+01 6.809000000E-01
1.946430000E+00 4.938450000E+01 1.261300000E+01 6.370000000E-01
2.080733000E+00 4.954040000E+01 1.150900000E+01 5.959000000E-01
2.224304000E+00 4.962050000E+01 1.050900000E+01 5.574000000E-01
2.377781000E+00 4.966300000E+01 9.599800000E+00 5.214000000E-01
2.541848000E+00 4.963980000E+01 8.774100000E+00 4.878000000E-01
2.717235000E+00 4.958300000E+01 8.022600000E+00 4.563000000E-01
2.904724000E+00 4.949270000E+01 7.296200000E+00 4.268000000E-01
3.105150000E+00 4.934600000E+01 6.577800000E+00 3.993000000E-01
3.319406000E+00 4.903690000E+01 5.887800000E+00 3.735000000E-01
3.548445000E+00 4.861910000E+01 5.281200000E+00 3.494000000E-01
3.793288000E+00 4.806680000E+01 4.742000000E+00 3.269000000E-01
4.055024000E+00 4.728880000E+01 4.243000000E+00 3.058000000E-01
4.334821000E+00 4.605110000E+01 3.792800000E+00 2.860000000E-01
4.633924000E+00 4.329040000E+01 3.395700000E+00 2.676000000E-01
4.686556000E+00 4.222210000E+01 3.333200000E+00 2.646000000E-01
4.758289000E+00 3.890740000E+01 3.251200000E+00 2.606000000E-01
4.777418000E+00 3.508590000E+01 3.229900000E+00 2.595000000E-01
4.806111000E+00 3.884840000E+01 1.061200000E+01 2.580000000E-01
4.877844000E+00 4.202370000E+01 1.027100000E+01 2.542000000E-01
4.953664000E+00 4.303900000E+01 9.927800000E+00 2.503000000E-01
5.001626000E+00 4.320580000E+01 9.719100000E+00 2.479000000E-01
5.078182000E+00 4.230550000E+01 9.433000000E+00 2.442000000E-01
5.098596000E+00 4.057210000E+01 9.362400000E+00 2.432000000E-01
5.129219000E+00 4.267320000E+01 1.294700000E+01 2.417000000E-01
5.205774000E+00 4.475230000E+01 1.257500000E+01 2.382000000E-01
5.295467000E+00 4.576970000E+01 1.216600000E+01 2.341000000E-01
5.343744000E+00 4.605860000E+01 1.195800000E+01 2.320000000E-01
5.425536000E+00 4.594580000E+01 1.163800000E+01 2.285000000E-01
5.447347000E+00 4.517630000E+01 1.155700000E+01 2.276000000E-01
5.480064000E+00 4.631120000E+01 1.325200000E+01 2.262000000E-01
5.561856000E+00 4.761660000E+01 1.294900000E+01 2.229000000E-01
5.660855000E+00 4.849890000E+01 1.260500000E+01 2.190000000E-01
6.051453000E+00 5.051020000E+01 1.142000000E+01 2.049000000E-01
6.469004000E+00 5.175980000E+01 1.033600000E+01 1.917000000E-01
6.915365000E+00 5.261290000E+01 9.314800000E+00 1.793000000E-01
7.392525000E+00 5.320220000E+01 8.375100000E+00 1.677000000E-01
7.902609000E+00 5.361090000E+01 7.525300000E+00 1.569000000E-01
8.447890000E+00 5.389970000E+01 6.764400000E+00 1.468000000E-01
9.030794000E+00 5.412240000E+01 6.074700000E+00 1.373000000E-01
9.653919000E+00 5.432480000E+01 5.422100000E+00 1.284000000E-01
1.032004000E+01 5.442590000E+01 4.827100000E+00 1.201000000E-01
1.103212000E+01 5.447320000E+01 4.291500000E+00 1.124000000E-01
1.179334000E+01 5.444660000E+01 3.808700000E+00 1.051000000E-01
1.260708000E+01 5.439160000E+01 3.383100000E+00 9.834000000E-02
1.347697000E+01 5.431830000E+01 3.007000000E+00 9.200000000E-02
1.440688000E+01 5.423290000E+01 2.674900000E+00 8.606000000E-02
1.540095000E+01 5.413970000E+01 2.381700000E+00 8.050000000E-02
1.646362000E+01 5.404130000E+01 2.122600000E+00 7.531000000E-02
1.759961000E+01 5.393940000E+01 1.893300000E+00 7.045000000E-02
1.881398000E+01 5.383450000E+01 1.689000000E+00 6.590000000E-02
2.011215000E+01 5.372610000E+01 1.507500000E+00 6.165000000E-02
2.149988000E+01 5.361310000E+01 1.344600000E+00 5.767000000E-02
2.298338000E+01 5.349140000E+01 1.197800000E+00 5.395000000E-02
2.456923000E+01 5.335630000E+01 1.065000000E+00 5.046000000E-02
2.626450000E+01 5.319930000E+01 9.454800000E-01 4.721000000E-02
2.807676000E+01 5.300510000E+01 8.323900000E-01 4.416000000E-02
3.001405000E+01 5.272360000E+01 7.312200000E-01 4.131000000E-02
3.208502000E+01 5.224150000E+01 6.428800000E-01 3.864000000E-02
3.387017000E+01 5.117660000E+01 5.794600000E-01 3.661000000E-02
3.429889000E+01 5.032200000E+01 5.656900000E-01 3.615000000E-02
3.438859000E+01 4.994470000E+01 5.628800000E-01 3.605000000E-02
3.452684000E+01 4.846660000E+01 5.585800000E-01 3.591000000E-02
3.473421000E+01 4.996340000E+01 3.463300000E+00 3.570000000E-02
3.525263000E+01 5.131690000E+01 3.380000000E+00 3.517000000E-02
3.666551000E+01 5.243790000E+01 3.168600000E+00 3.381000000E-02
3.919543000E+01 5.321740000E+01 2.838800000E+00 3.163000000E-02
4.189992000E+01 5.362960000E+01 2.543200000E+00 2.959000000E-02
4.479101000E+01 5.389050000E+01 2.278100000E+00 2.768000000E-02
4.788159000E+01 5.406500000E+01 2.033500000E+00 2.589000000E-02
5.118542000E+01 5.418090000E+01 1.814100000E+00 2.422000000E-02
5.471721000E+01 5.425830000E+01 1.617900000E+00 2.266000000E-02
5.849270000E+01 5.430870000E+01 1.442500000E+00 2.120000000E-02
6.252870000E+01 5.433980000E+01 1.285900000E+00 1.983000000E-02
6.684318000E+01 5.435730000E+01 1.146200000E+00 1.855000000E-02
7.145536000E+01 5.439630000E+01 1.020000000E+00 1.735000000E-02
7.638578000E+01 5.439450000E+01 9.061600000E-01 1.623000000E-02
8.165640000E+01 5.438940000E+01 8.038200000E-01 1.518000000E-02
8.729069000E+01 5.437680000E+01 7.105600000E-01 1.420000000E-02
9.331374000E+01 5.436000000E+01 6.281800000E-01 1.329000000E-02
9.975239000E+01 5.434090000E+01 5.554000000E-01 1.243000000E-02
1.066353000E+02 5.432060000E+01 4.910900000E-01 1.163000000E-02
1.139931000E+02 5.430000000E+01 4.342700000E-01 1.088000000E-02
1.218587000E+02 5.427940000E+01 3.840500000E-01 1.017000000E-02
1.302669000E+02 5.425920000E+01 3.396600000E-01 9.518000000E-03
1.392553000E+02 5.423970000E+01 3.004200000E-01 8.903000000E-03
1.488640000E+02 5.422100000E+01 2.657400000E-01 8.329000000E-03
1.591356000E+02 5.420320000E+01 2.352000000E-01 7.791000000E-03
1.701159000E+02 5.418660000E+01 2.082000000E-01 7.288000000E-03
1.818539000E+02 5.417090000E+01 1.843000000E-01 6.818000000E-03
1.944018000E+02 5.415640000E+01 1.631600000E-01 6.378000000E-03
2.078156000E+02 5.414280000E+01 1.444600000E-01 5.966000000E-03
2.221548000E+02 5.413020000E+01 1.279000000E-01 5.581000000E-03
2.374835000E+02 5.411860000E+01 1.132500000E-01 5.221000000E-03
2.538699000E+02 5.410790000E+01 1.002900000E-01 4.884000000E-03
2.713869000E+02 5.409810000E+01 8.880800000E-02 4.569000000E-03
2.901126000E+02 5.408900000E+01 7.864800000E-02 4.274000000E-03
3.101304000E+02 5.408070000E+01 6.965400000E-02 3.998000000E-03
3.315294000E+02 5.407320000E+01 6.169200000E-02 3.740000000E-03
3.544049000E+02 5.406620000E+01 5.464200000E-02 3.498000000E-03
3.788588000E+02 5.405990000E+01 4.840000000E-02 3.273000000E-03
4.050001000E+02 5.405420000E+01 4.287300000E-02 3.061000000E-03
4.329451000E+02 5.404890000E+01 3.797900000E-02 2.864000000E-03
